1.009628	147.3158
1.014176	149.8178
1.018725	151.2114
1.023273	152.8077
1.027822	152.7999
1.03237	151.4341
1.036919	149.5038
1.041467	149.5723
1.046016	147.965
1.050564	149.3053
1.055113	149.5011
1.059661	149.8477
1.064209	149.4256
1.068758	149.7975
1.073306	150.3989
1.077855	150.4623
1.082403	149.87
1.086952	148.7694
1.0915	149.464
1.096049	147.4062
1.100597	145.837
1.105146	145.7507
1.109694	146.5548
1.114242	147.4263
1.118791	147.1885
1.123339	148.2289
1.127888	149.4811
1.132436	148.0768
1.136985	147.1205
1.141533	147.5554
1.146082	146.6242
1.15063	146.1399
1.155178	144.7955
1.159727	145.2141
1.164275	143.9032
1.168824	142.7897
1.173372	143.716
1.177921	143.8969
1.182469	142.8487
1.187018	142.4823
1.191566	141.4401
1.196115	139.6337
1.200663	139.7549
1.205211	140.0806
1.20976	140.7289
1.214308	142.4108
1.218857	142.7532
1.223405	143.7671
1.227954	142.5267
1.232502	141.9173
1.237051	140.2115
1.241599	140.2222
1.246148	139.9363
1.250696	139.4117
1.255244	139.1438
1.259793	138.6153
1.264341	139.1492
1.26889	139.691
1.273438	140.2021
1.277987	139.5578
1.282535	139.863
1.287084	139.9049
1.291632	138.5683
1.296181	138.6402
1.300729	138.6291
1.305277	138.9524
1.309826	139.6919
1.314374	139.4294
1.318923	139.2848
1.323471	138.1925
1.32802	138.1312
1.332568	137.6407
1.337117	137.4076
1.341665	137.6065
1.346213	137.2616
1.350762	137.4581
1.35531	136.6587
1.359859	136.076
1.364407	136.5326
1.368956	135.6449
1.373504	134.9296
1.378053	135.6659
1.382601	135.0638
1.38715	134.7061
1.391698	134.5817
1.396246	134.0712
1.400795	132.8534
1.405343	133.1508
1.409892	132.4897
1.41444	132.3563
1.418989	132.3004
1.423537	132.5294
1.428086	132.007
1.432634	131.9747
1.437183	131.3878
1.441731	130.9096
1.446279	131.1623
1.450828	131.6295
1.455376	132.6209
1.459925	133.1787
1.464473	134.0747
1.469022	133.4615
1.47357	133.3249
1.478119	132.432
1.482667	131.1295
1.487216	130.1608
1.491764	129.4765
1.496312	128.9115
1.500861	128.6874
1.505409	129.3091
1.509958	129.6213
1.514506	129.6533
1.519055	129.5678
1.523603	129.1604
1.528152	129.0036
1.5327	128.4732
1.537248	127.9709
1.541797	128.5892
1.546345	129.4048
1.550894	129.1188
1.555442	129.4434
1.559991	130.2687
1.564539	130.135
1.569088	129.4556
1.573636	129.5475
1.578185	129.9616
1.582733	129.5226
1.587281	128.5257
1.59183	128.3753
1.596378	128.3862
1.600927	128.0332
1.605475	127.6584
1.610024	127.9913
1.614572	128.0333
1.619121	128.4712
1.623669	128.0884
1.628218	128.3236
1.632766	129.0999
1.637314	129.1969
1.641863	129.8186
1.646411	129.5312
1.65096	129.2127
1.655508	129.2276
1.660057	128.3476
1.664605	128.1622
1.669154	128.5095
1.673702	128.3635
1.678251	128.1615
1.682799	127.9568
1.687347	127.8076
1.691896	127.5862
1.696444	127.6479
1.700993	127.5017
1.705541	126.8981
1.71009	126.8435
1.714638	126.3984
1.719187	125.5362
1.723735	124.9969
1.728283	124.8612
1.732832	124.9161
1.73738	124.8739
1.741929	124.8504
1.746477	124.987
1.751026	125.1902
1.755574	124.8784
1.760123	124.3042
1.764671	123.8445
1.76922	123.3778
1.773768	123.2417
1.778316	123.4397
1.782865	123.3635
1.787413	123.2875
1.791962	123.0356
1.79651	123.0466
1.801059	123.223
1.805607	122.9641
1.810156	122.843
1.814704	123.5864
1.819253	123.2613
1.823801	122.8599
1.828349	122.0283
1.832898	121.8515
1.837446	121.3801
1.841995	121.4078
1.846543	121.7441
1.851092	121.3594
1.85564	121.2819
1.860189	122.0775
1.864737	122.4101
1.869286	122.0501
1.873834	122.1821
1.878382	121.5074
1.882931	121.0054
1.887479	120.6887
1.892028	119.6764
1.896576	119.435
1.901125	119.6961
1.905673	119.6991
1.910222	120.1685
1.91477	120.2934
1.919318	120.3122
1.923867	120.1479
1.928415	119.7887
1.932964	119.9801
1.937512	119.6233
1.942061	119.5633
1.946609	119.4737
1.951158	119.4826
1.955706	119.341
1.960255	118.5582
1.964803	118.034
1.969351	117.8937
1.9739	117.7653
1.978448	118.1
1.982997	118.6108
1.987545	118.6829
1.992094	118.4096
1.996642	118.061
2.001191	117.7212
2.005739	117.5558
2.010288	116.9033
2.014836	116.2149
2.019384	115.8219
2.023933	115.5863
2.028481	115.8076
2.03303	115.5791
2.037578	116.4756
2.042127	117.192
2.046675	117.255
2.051224	117.3582
2.055772	117.0465
2.060321	117.0127
2.064869	117.3451
2.069417	116.9883
2.073966	116.6526
2.078514	116.4254
2.083063	115.8268
2.087611	114.8928
2.09216	114.7247
2.096708	114.7558
2.101257	115.0528
2.105805	115.108
2.110353	115.3479
2.114902	115.5275
2.11945	115.4902
2.123999	115.6544
2.128547	115.6757
2.133096	115.6648
2.137644	116.0429
2.142193	115.7847
2.146741	115.7972
2.15129	115.8491
2.155838	115.3097
2.160386	114.929
2.164935	115.0808
2.169483	115.1466
2.174032	115.0142
2.17858	115.088
2.183129	114.6573
2.187677	114.4048
2.192226	114.2075
2.196774	113.9757
2.201323	114.1485
2.205871	114.5895
2.210419	114.8113
2.214968	114.756
2.219516	114.5081
2.224065	114.1525
2.228613	113.7999
2.233162	113.7125
2.23771	113.5749
2.242259	113.7724
2.246807	113.9901
2.251356	114.035
2.255904	113.9412
2.260452	113.6858
2.265001	113.9911
2.269549	113.457
2.274098	112.6232
2.278646	112.6045
2.283195	112.7611
2.287743	112.6011
2.292292	112.0122
2.29684	112.144
2.301388	111.7291
2.305937	111.8321
2.310485	112.0635
2.315034	112.3576
2.319582	112.6603
2.324131	112.8167
2.328679	113.5547
2.333228	113.3354
2.337776	113.6489
2.342325	113.5883
2.346873	114.1806
2.351421	114.9727
2.35597	115.157
2.360518	115.8434
2.365067	116.347
2.369615	117.065
2.374164	118.4974
2.378712	120.211
2.383261	123.4532
2.387809	127.1055
2.392358	134.6936
2.396906	142.3812
2.401454	154.8625
2.406003	174.5681
2.410551	219.7916
2.4151	344.265
2.419648	1021.011
2.424197	1624.261
2.428745	2680.089
2.433294	3698.593
2.437842	4402.75
2.442391	4806.628
2.446939	4578.755
2.451487	3950.517
2.456036	2975.925
2.460584	2002.735
2.465133	1172.954
2.469681	691.8678
2.47423	397.2507
2.478778	254.9114
2.483327	225.333
2.487875	197.7025
2.492423	176.0056
2.496972	157.3286
2.50152	144.4859
2.506069	133.5961
2.510617	127.143
2.515166	122.6761
2.519714	119.7225
2.524263	117.6632
2.528811	115.6297
2.53336	113.7398
2.537908	112.919
2.542456	111.8243
2.547005	111.2619
2.551553	110.8574
2.556102	110.4874
2.56065	109.6168
2.565199	108.9794
2.569747	108.5262
2.574296	107.9925
2.578844	107.7811
2.583393	108.0654
2.587941	107.931
2.592489	107.8797
2.597038	107.4694
2.601586	107.5303
2.606135	106.9905
2.610683	106.3549
2.615232	106.4815
2.61978	106.6474
2.624329	106.1662
2.628877	106.1265
2.633426	105.6056
2.637974	105.4756
2.642522	105.5426
2.647071	105.8636
2.651619	106.0314
2.656168	106.2343
2.660716	106.3726
2.665265	106.4263
2.669813	106.6529
2.674362	106.3141
2.67891	106.0866
2.683458	106.0833
2.688007	105.7063
2.692555	104.9759
2.697104	104.8696
2.701652	104.8118
2.706201	104.9875
2.710749	104.3487
2.715298	104.1747
2.719846	104.1909
2.724395	103.8837
2.728943	103.4592
2.733491	103.3883
2.73804	103.292
2.742588	103.5366
2.747137	103.3343
2.751685	103.4978
2.756234	103.8344
2.760782	103.7935
2.765331	103.5938
2.769879	103.4225
2.774428	103.022
2.778976	102.6033
2.783524	102.2991
2.788073	102.2408
2.792621	102.1305
2.79717	102.0822
2.801718	102.2147
2.806267	102.162
2.810815	101.9583
2.815364	102.2325
2.819912	102.1675
2.824461	102.1844
2.829009	102.1162
2.833557	102.3585
2.838106	102.4746
2.842654	102.3952
2.847203	102.5757
2.851751	102.8926
2.8563	102.6709
2.860848	102.2678
2.865397	102.147
2.869945	102.3536
2.874493	102.0984
2.879042	102.4989
2.88359	102.6857
2.888139	102.4593
2.892687	102.7055
2.897236	102.6112
2.901784	102.2105
2.906333	102.098
2.910881	102.2779
2.91543	101.8129
2.919978	101.5606
2.924526	101.7224
2.929075	101.4769
2.933623	101.4814
2.938172	101.4297
2.94272	101.4367
2.947269	101.4671
2.951817	101.4292
2.956366	101.671
2.960914	101.9593
2.965463	102.0395
2.970011	101.9709
2.974559	101.9273
2.979108	101.6635
2.983656	101.4009
2.988205	101.1611
2.992753	100.9592
2.997302	100.5426
3.00185	100.3553
3.006399	100.383
3.010947	100.1633
3.015496	99.90968
3.020044	99.7914
3.024592	100.0013
3.029141	99.83611
3.033689	99.70203
3.038238	99.8788
3.042786	99.63285
3.047335	99.49377
3.051883	99.26662
3.056432	99.33554
3.06098	99.21835
3.065528	99.06085
3.070077	98.79091
3.074625	98.61947
3.079174	98.67836
3.083722	98.42628
3.088271	98.39645
3.092819	98.55399
3.097368	98.39731
3.101916	98.33894
3.106465	98.30975
3.111013	98.24472
3.115561	98.16517
3.12011	97.75706
3.124658	97.16418
3.129207	96.61561
3.133755	96.71284
3.138304	96.69942
3.142852	96.71658
3.147401	96.99146
3.151949	97.38789
3.156498	97.48815
3.161046	97.21584
3.165594	97.04105
3.170143	96.82893
3.174691	96.74818
3.17924	96.93864
3.183788	96.94451
3.188337	97.16716
3.192885	97.22823
3.197434	97.58219
3.201982	97.63909
3.206531	97.48014
3.211079	97.58416
3.215627	97.4902
3.220176	97.15623
3.224724	97.01542
3.229273	97.23067
3.233821	97.38753
3.23837	97.24114
3.242918	97.07693
3.247467	97.18745
3.252015	96.95609
3.256563	96.64418
3.261112	96.60473
3.26566	96.29895
3.270209	96.20578
3.274757	96.23766
3.279306	96.03998
3.283854	95.7276
3.288403	95.76569
3.292951	95.85735
3.2975	95.95004
3.302048	95.91239
3.306596	96.13915
3.311145	96.24113
3.315693	96.46643
3.320242	96.57179
3.32479	96.74902
3.329339	96.93169
3.333887	97.30475
3.338436	97.71659
3.342984	98.01743
3.347533	98.61996
3.352081	99.90672
3.356629	101.3916
3.361178	102.714
3.365726	104.3315
3.370275	106.2967
3.374823	108.5771
3.379372	110.7454
3.38392	113.6367
3.388469	117.417
3.393017	123.4423
3.397566	132.7083
3.402114	148.059
3.406662	169.1626
3.411211	197.3708
3.415759	233.4497
3.420308	297.5877
3.424856	478.9202
3.429405	902.2389
3.433953	2041.82
3.438502	3866.78
3.44305	5588.188
3.447598	7297.374
3.452147	8338.476
3.456695	8468.032
3.461244	7548.047
3.465792	5940.491
3.470341	4042.142
3.474889	2408.274
3.479438	1375.144
3.483986	677.8415
3.488535	415.2748
3.493083	295.9481
3.497631	249.1229
3.50218	210.3616
3.506728	182.9522
3.511277	159.04
3.515825	141.0212
3.520374	128.7578
3.524922	121.2229
3.529471	114.5374
3.534019	109.8957
3.538568	105.9914
3.543116	102.976
3.547664	100.6841
3.552213	99.02312
3.556761	97.66006
3.56131	96.50266
3.565858	95.65694
3.570407	94.82111
3.574955	93.82561
3.579504	93.1905
3.584052	92.78892
3.588601	92.36047
3.593149	92.17306
3.597697	92.14307
3.602246	92.15843
3.606794	91.99397
3.611343	92.07783
3.615891	91.80008
3.62044	91.43403
3.624988	91.1803
3.629537	90.95179
3.634085	90.7115
3.638633	90.17017
3.643182	89.97775
3.64773	90.00646
3.652279	90.05594
3.656827	90.0444
3.661376	90.31899
3.665924	90.46435
3.670473	90.17815
3.675021	89.8829
3.67957	89.69303
3.684118	89.61662
3.688666	88.98523
3.693215	88.46951
3.697763	88.4697
3.702312	88.67272
3.70686	88.60028
3.711409	88.24547
3.715957	87.95475
3.720506	87.74651
3.725054	87.37799
3.729603	87.37209
3.734151	87.28648
3.738699	87.16287
3.743248	87.46889
3.747796	87.38175
3.752345	87.22761
3.756893	86.93324
3.761442	86.67132
3.76599	86.7245
3.770539	86.57806
3.775087	86.3946
3.779636	86.33929
3.784184	86.24342
3.788732	86.10603
3.793281	85.74243
3.797829	85.39439
3.802378	85.28029
3.806926	85.23404
3.811475	85.01986
3.816023	84.76588
3.820572	84.71345
3.82512	84.78464
3.829668	84.86582
3.834217	84.44612
3.838765	84.2728
3.843314	84.00012
3.847862	83.87576
3.852411	83.74241
3.856959	83.73341
3.861508	83.90393
3.866056	84.05393
3.870605	84.47169
3.875153	84.89676
3.879701	84.80224
3.88425	84.95642
3.888798	85.15753
3.893347	84.91438
3.897895	84.73641
3.902444	83.99725
3.906992	83.80957
3.911541	83.53687
3.916089	83.47027
3.920638	83.37691
3.925186	83.59847
3.929734	83.76952
3.934283	83.8574
3.938831	84.00725
3.94338	83.86939
3.947928	83.98044
3.952477	84.00043
3.957025	84.15593
3.961574	83.94101
3.966122	83.99889
3.970671	83.87191
3.975219	83.69785
3.979767	83.30743
3.984316	83.00843
3.988864	82.96098
3.993413	83.1153
3.997961	83.21293
4.00251	83.2743
4.007058	83.33591
4.011607	83.3319
4.016155	83.27556
4.020703	82.99969
4.025252	82.93719
4.0298	82.68556
4.034349	82.85667
4.038897	82.68101
4.043446	82.63405
4.047994	82.64734
4.052543	82.88819
4.057091	83.13811
4.06164	83.19291
4.066188	83.47713
4.070736	83.43401
4.075285	83.43289
4.079833	83.35429
4.084382	83.09582
4.08893	82.8246
4.093479	82.97741
4.098027	83.17239
4.102576	83.35822
4.107124	83.57995
4.111673	83.76203
4.116221	84.16763
4.120769	84.35638
4.125318	84.83955
4.129866	85.58672
4.134415	86.20194
4.138963	86.8999
4.143512	87.50152
4.14806	88.30145
4.152609	89.24263
4.157157	90.6951
4.161706	92.80595
4.166254	95.60678
4.170802	99.68246
4.175351	105.5654
4.179899	114.4384
4.184448	127.0191
4.188996	143.4237
4.193545	164.6127
4.198093	212.3763
4.202642	329.5574
4.20719	624.6208
4.211738	1110.51
4.216287	1819.436
4.220835	2531.231
4.225384	3217.861
4.229932	3525.459
4.234481	3465.939
4.239029	2945.56
4.243578	2257.324
4.248126	1556.625
4.252675	937.3538
4.257223	561.4865
4.261771	280.6305
4.26632	196.3374
4.270868	161.2284
4.275417	141.7227
4.279965	127.0003
4.284514	115.4394
4.289062	106.1761
4.293611	100.1346
4.298159	95.7256
4.302708	92.7135
4.307256	90.61984
4.311804	88.83911
4.316353	87.54771
4.320901	86.30677
4.32545	85.27703
4.329998	84.53568
4.334547	83.70152
4.339095	83.28039
4.343644	83.00983
4.348192	82.75755
4.352741	82.35504
4.357289	82.25448
4.361837	81.96136
4.366386	81.83517
4.370934	81.58373
4.375483	81.47857
4.380031	81.50314
4.38458	81.49348
4.389128	81.42292
4.393677	81.47431
4.398225	81.55588
4.402773	81.7203
4.407322	81.64822
4.41187	81.50599
4.416419	81.35856
4.420967	81.26782
4.425516	81.00587
4.430064	80.93157
4.434613	80.96956
4.439161	80.92087
4.44371	80.69107
4.448258	80.70754
4.452806	80.55012
4.457355	80.64166
4.461903	80.71307
4.466452	80.74446
4.471	80.71238
4.475549	80.70982
4.480097	80.63271
4.484646	80.48055
4.489194	80.31224
4.493743	80.25935
4.498291	80.30396
4.502839	80.4134
4.507388	80.77263
4.511936	81.31229
4.516485	81.81083
4.521033	82.49897
4.525582	83.00285
4.53013	83.60053
4.534679	83.75953
4.539227	83.67522
4.543776	83.34132
4.548324	82.63946
4.552872	81.96065
4.557421	81.33779
4.561969	81.11014
4.566518	80.80549
4.571066	80.56259
4.575615	80.44019
4.580163	80.3774
4.584712	80.2177
4.58926	80.20813
4.593808	80.30595
4.598357	80.10472
4.602905	80.02822
4.607454	79.90271
4.612002	79.71056
4.616551	79.58657
4.621099	79.60914
4.625648	80.02184
4.630196	80.15302
4.634745	80.40106
4.639293	80.27601
4.643841	80.24841
4.64839	79.88853
4.652938	79.67221
4.657487	79.55672
4.662035	79.62611
4.666584	79.67793
4.671132	79.91631
4.675681	80.00684
4.680229	79.99255
4.684778	79.89027
4.689326	79.66563
4.693874	79.41698
4.698423	79.34422
4.702971	79.3127
4.70752	79.43919
4.712068	79.36238
4.716617	79.22274
4.721165	79.50004
4.725714	79.56316
4.730262	79.35741
4.734811	79.12761
4.739359	79.06596
4.743907	79.09676
4.748456	79.09639
4.753004	79.19569
4.757553	79.35412
4.762101	79.42067
4.76665	79.32401
4.771198	79.16502
4.775747	79.01487
4.780295	79.21294
4.784843	79.54594
4.789392	80.11463
4.79394	80.74596
4.798489	81.41875
4.803037	82.16992
4.807586	82.92986
4.812134	83.77682
4.816683	84.76312
4.821231	86.3334
4.82578	88.41119
4.830328	91.60304
4.834876	96.50668
4.839425	102.6017
4.843973	110.5507
4.848522	123.0386
4.85307	149.3405
4.857619	228.0178
4.862167	425.0586
4.866716	674.5268
4.871264	1175.726
4.875813	1643.531
4.880361	1970.745
4.884909	2114.077
4.889458	2023.857
4.894006	1762.466
4.898555	1288.417
4.903103	848.8429
4.907652	528.0558
4.9122	343.1878
4.916749	213.8862
4.921297	146.5462
4.925846	123.4111
4.930394	111.8441
4.934942	102.7919
4.939491	96.78737
4.944039	91.84464
4.948588	88.83574
4.953136	86.55964
4.957685	85.16119
4.962233	84.0174
4.966782	83.49286
4.97133	82.87154
4.975878	82.1287
4.980427	81.61829
4.984975	81.20905
4.989524	81.05787
4.994072	80.70486
4.998621	80.3623
5.003169	80.27947
5.007718	80.16113
5.012266	80.17066
5.016815	79.94356
5.021363	79.8175
5.025911	79.59299
5.03046	79.60474
5.035008	79.35436
5.039557	79.19814
5.044105	79.1328
5.048654	79.14622
5.053202	79.14516
5.057751	79.0938
5.062299	78.99805
5.066848	78.90303
5.071396	78.7645
5.075944	78.54207
5.080493	78.59654
5.085041	78.80975
5.08959	79.09852
5.094138	79.25783
5.098687	79.2251
5.103235	79.2049
5.107784	78.98487
5.112332	78.71584
5.116881	78.40459
5.121429	78.18855
5.125977	78.28497
5.130526	78.308
5.135074	78.19234
5.139623	78.21399
5.144171	78.12512
5.14872	77.99027
5.153268	78.19157
5.157817	77.97652
5.162365	77.92284
5.166913	78.14365
5.171462	78.18945
5.17601	78.27846
5.180559	78.13551
5.185107	78.25831
5.189656	78.46434
5.194204	78.41525
5.198753	78.39866
5.203301	78.50428
5.20785	78.60382
5.212398	78.50131
5.216946	78.43055
5.221495	78.36839
5.226043	78.28897
5.230592	78.33486
5.23514	78.26125
5.239689	78.18614
5.244237	77.98154
5.248786	77.95892
5.253334	77.92989
5.257883	77.91326
5.262431	78.12768
5.266979	78.39829
5.271528	78.66547
5.276076	78.85627
5.280625	78.93515
5.285173	78.87875
5.289722	78.68884
5.29427	78.6794
5.298819	78.73413
5.303367	78.64979
5.307916	78.66875
5.312464	78.66264
5.317012	78.65709
5.321561	78.61082
5.326109	78.69444
5.330658	78.70833
5.335206	78.65574
5.339755	78.811
5.344303	78.88832
5.348852	79.17529
5.3534	79.45827
5.357948	79.84028
5.362497	80.51938
5.367045	81.16936
5.371594	82.06174
5.376142	83.0617
5.380691	84.44866
5.385239	86.09314
5.389788	88.35852
5.394336	91.37135
5.398885	96.04226
5.403433	102.6361
5.407981	111.8277
5.41253	124.752
5.417078	142.1004
5.421627	164.502
5.426175	211.5415
5.430724	316.5677
5.435272	599.1391
5.439821	1063.541
5.444369	1819.363
5.448918	2787.051
5.453466	3701.031
5.458014	4253.625
5.462563	4380.512
5.467111	3988.046
5.47166	3271.804
5.476208	2393.781
5.480757	1588.568
5.485305	952.4407
5.489854	508.326
5.494402	305.1177
5.498951	210.6779
5.503499	168.8919
5.508047	139.4626
5.512596	123.8756
5.517144	111.7928
5.521693	103.3817
5.526241	96.9409
5.53079	92.24823
5.535338	88.61806
5.539887	86.24908
5.544435	83.98994
5.548983	82.18044
5.553532	80.77191
5.55808	79.88509
5.562629	78.81771
5.567177	78.03249
5.571726	77.42525
5.576274	77.12886
5.580823	76.71789
5.585371	76.43253
5.58992	76.08266
5.594468	76.16014
5.599016	75.89711
5.603565	75.46317
5.608113	75.14452
5.612662	74.85727
5.61721	74.70862
5.621759	74.55231
5.626307	74.37833
5.630856	74.3593
5.635404	74.34348
5.639953	74.18499
5.644501	74.09298
5.649049	74.03451
5.653598	73.75906
5.658146	73.68032
5.662695	73.54675
5.667243	73.55064
5.671792	73.42873
5.67634	73.29052
5.680889	73.26672
5.685437	73.22858
5.689986	73.25367
5.694534	73.37607
5.699082	73.51073
5.703631	73.56503
5.708179	73.39293
5.712728	73.20497
5.717276	73.11861
5.721825	72.99233
5.726373	72.95438
5.730922	73.14528
5.73547	73.28525
5.740018	73.36826
5.744567	73.23206
5.749115	72.97082
5.753664	72.74088
5.758212	72.54331
5.762761	72.53195
5.767309	72.70814
5.771858	72.79043
5.776406	72.89902
5.780955	72.89969
5.785503	72.75538
5.790051	72.70604
5.7946	72.66626
5.799148	72.73274
5.803697	72.82634
5.808245	72.82315
5.812794	72.82747
5.817342	72.82575
5.821891	72.77741
5.826439	72.71423
5.830988	72.58753
5.835536	72.74175
5.840084	72.70105
5.844633	72.85383
5.849181	72.98303
5.85373	72.95721
5.858278	72.9975
5.862827	73.16969
5.867375	73.38085
5.871924	73.58315
5.876472	73.8855
5.881021	74.15242
5.885569	74.52974
5.890117	74.91771
5.894666	75.30791
5.899214	75.98775
5.903763	76.85365
5.908311	77.80592
5.91286	79.22977
5.917408	81.49408
5.921957	84.29486
5.926505	88.14432
5.931053	93.97112
5.935602	102.2473
5.94015	112.2011
5.944699	129.3366
5.949247	165.7981
5.953796	256.4312
5.958344	442.0129
5.962893	742.4458
5.967441	1142.488
5.97199	1597.63
5.976538	1995.063
5.981086	2223.086
5.985635	2205.704
5.990183	1965.088
5.994732	1555.57
5.99928	1108.142
6.003829	722.313
6.008377	442.571
6.012926	287.569
6.017474	181.6503
6.022023	132.6408
6.026571	114.1465
6.031119	103.9031
6.035668	95.07962
6.040216	89.31349
6.044765	85.16586
6.049313	82.02251
6.053862	79.69012
6.05841	78.06571
6.062959	76.84108
6.067507	75.78284
6.072056	74.83198
6.076604	74.20055
6.081152	73.59381
6.085701	73.21195
6.090249	72.99648
6.094798	72.69572
6.099346	72.47902
6.103895	72.27373
6.108443	71.83374
6.112992	71.64371
6.11754	71.43282
6.122088	71.3062
6.126637	71.21001
6.131185	71.25757
6.135734	71.20766
6.140282	71.0216
6.144831	71.0433
6.149379	70.88716
6.153928	70.83429
6.158476	70.86155
6.163025	70.79016
6.167573	70.92562
6.172121	70.81985
6.17667	70.81007
6.181218	70.7949
6.185767	70.76151
6.190315	70.77512
6.194864	70.61256
6.199412	70.34675
6.203961	70.32765
6.208509	70.40848
6.213058	70.46539
6.217606	70.44114
6.222154	70.48927
6.226703	70.5673
6.231251	70.3998
6.2358	70.28275
6.240348	70.17833
6.244897	69.84586
6.249445	69.85748
6.253994	69.84917
6.258542	69.81148
6.263091	69.56482
6.267639	69.56923
6.272187	69.52814
6.276736	69.73249
6.281284	69.74902
6.285833	69.75706
6.290381	69.78234
6.29493	69.67441
6.299478	69.54139
6.304027	69.33246
6.308575	69.32658
6.313123	69.25118
6.317672	69.13357
6.32222	69.16415
6.326769	69.17414
6.331317	69.1852
6.335866	69.15902
6.340414	69.21576
6.344963	69.36671
6.349511	69.31654
6.35406	69.44382
6.358608	69.43349
6.363156	69.51279
6.367705	69.45804
6.372253	69.48015
6.376802	69.39731
6.38135	69.33015
6.385899	69.41119
6.390447	69.42719
6.394996	69.49425
6.399544	69.42678
6.404093	69.48639
6.408641	69.34634
6.413189	69.33662
6.417738	69.32734
6.422286	69.31032
6.426835	69.31959
6.431383	69.26907
6.435932	69.30492
6.44048	69.12508
6.445029	69.08629
6.449577	68.94087
6.454126	68.7913
6.458674	68.64985
6.463222	68.69866
6.467771	68.73016
6.472319	68.83934
6.476868	69.03401
6.481416	69.09964
6.485965	69.18494
6.490513	69.05798
6.495062	68.95997
6.49961	68.96996
6.504158	68.86948
6.508707	68.82726
6.513255	68.79596
6.517804	68.7488
6.522352	68.70982
6.526901	68.67812
6.531449	68.60182
6.535998	68.56606
6.540546	68.54137
6.545095	68.64417
6.549643	68.537
6.554191	68.3902
6.55874	68.22968
6.563288	68.09806
6.567837	67.92451
6.572385	67.97668
6.576934	68.06999
6.581482	68.18768
6.586031	68.37753
6.590579	68.64102
6.595128	68.67142
6.599676	68.75099
6.604224	68.73964
6.608773	68.67005
6.613321	68.68368
6.61787	68.61131
6.622418	68.56914
6.626967	68.55934
6.631515	68.77877
6.636064	68.99528
6.640612	69.18941
6.645161	69.19878
6.649709	69.34644
6.654257	69.31014
6.658806	69.10123
6.663354	68.94346
6.667903	68.82512
6.672451	68.76245
6.677	68.88055
6.681548	68.94281
6.686097	68.79277
6.690645	68.71986
6.695193	68.873
6.699742	68.85452
6.70429	68.80291
6.708839	68.79341
6.713387	68.75681
6.717936	68.59013
6.722484	68.44086
6.727033	68.57687
6.731581	68.60704
6.73613	68.69942
6.740678	68.75217
6.745226	68.78196
6.749775	68.8895
6.754323	69.19569
6.758872	69.4516
6.76342	69.59311
6.767969	69.57293
6.772517	69.54475
6.777066	69.51776
6.781614	69.01388
6.786163	69.06661
6.790711	69.16869
6.795259	69.43549
6.799808	69.53772
6.804356	69.59649
6.808905	69.77269
6.813453	69.88703
6.818002	70.04594
6.82255	70.21416
6.827099	70.45374
6.831647	70.88408
6.836196	71.32425
6.840744	72.06477
6.845292	72.9819
6.849841	74.31865
6.854389	76.14956
6.858938	78.5434
6.863486	82.59521
6.868035	88.51367
6.872583	101.3768
6.877132	126.6458
6.88168	183.5331
6.886228	268.5511
6.890777	415.386
6.895325	576.356
6.899874	709.3461
6.904422	804.9577
6.908971	843.4758
6.913519	802.4836
6.918068	674.8363
6.922616	525.8748
6.927165	387.4714
6.931713	272.6936
6.936261	186.5715
6.94081	131.3654
6.945358	106.4062
6.949907	91.26739
6.954455	84.42829
6.959004	80.6363
6.963552	77.78626
6.968101	75.69795
6.972649	74.19921
6.977198	73.11772
6.981746	72.21188
6.986294	71.57285
6.990843	71.05942
6.995391	70.65665
6.99994	70.2974
7.004488	69.91483
7.009037	69.64291
7.013585	69.58795
7.018134	69.45197
7.022682	69.37937
7.027231	69.55866
7.031779	69.45598
7.036327	69.19856
7.040876	69.15924
7.045424	69.22341
7.049973	69.21775
7.054521	69.30636
7.05907	69.31245
7.063618	69.47921
7.068167	69.35449
7.072715	69.4521
7.077263	69.50552
7.081812	69.39825
7.08636	69.23174
7.090909	69.28575
7.095457	69.2886
7.100006	69.23
7.104554	69.20267
7.109103	69.25928
7.113651	69.19003
7.1182	69.24419
7.122748	69.22513
7.127296	69.2152
7.131845	69.19744
7.136393	69.21639
7.140942	69.29454
7.14549	69.38663
7.150039	69.69388
7.154587	69.79247
7.159136	69.83831
7.163684	69.82879
7.168233	69.88931
7.172781	69.74908
7.177329	69.76543
7.181878	69.8149
7.186426	69.80011
7.190975	69.82893
7.195523	69.91462
7.200072	70.3159
7.20462	70.54137
7.209169	70.80766
7.213717	71.24081
7.218266	71.78088
7.222814	72.04227
7.227362	72.42757
7.231911	72.81916
7.236459	73.59401
7.241008	74.20511
7.245556	74.89606
7.250105	76.25974
7.254653	77.80082
7.259202	79.52821
7.26375	82.05939
7.268298	85.85925
7.272847	91.04279
7.277395	97.92517
7.281944	107.229
7.286492	122.0576
7.291041	156.6995
7.295589	225.104
7.300138	358.1947
7.304686	601.3856
7.309235	962.4086
7.313783	1435.922
7.318331	1916.266
7.32288	2243.309
7.327428	2437.362
7.331977	2384.777
7.336525	2119.853
7.341074	1705.664
7.345622	1285.891
7.350171	890.6926
7.354719	534.9355
7.359268	327.9117
7.363816	209.4562
7.368364	154.4406
7.372913	124.1305
7.377461	108.7978
7.38201	98.73145
7.386558	92.11817
7.391107	86.82213
7.395655	82.74138
7.400204	79.76042
7.404752	77.73761
7.409301	76.10614
7.413849	74.77686
7.418397	73.84503
7.422946	73.06416
7.427494	72.41776
7.432043	71.85724
7.436591	71.40134
7.44114	70.95542
7.445688	70.73914
7.450237	70.44402
7.454785	70.09123
7.459333	70.09883
7.463882	69.86526
7.46843	69.67312
7.472979	69.58023
7.477527	69.54636
7.482076	69.44739
7.486624	69.47178
7.491173	69.29676
7.495721	69.21162
7.50027	69.07577
7.504818	69.01812
7.509366	68.97603
7.513915	68.899
7.518463	68.95765
7.523012	68.90426
7.52756	68.91071
7.532109	68.77781
7.536657	68.71352
7.541206	68.67041
7.545754	68.6969
7.550303	68.61114
7.554851	68.55995
7.559399	68.59097
7.563948	68.54682
7.568496	68.44389
7.573045	68.58488
7.577593	68.6023
7.582142	68.62244
7.58669	68.62303
7.591239	68.67825
7.595787	68.66177
7.600336	68.86425
7.604884	68.95936
7.609432	69.23679
7.613981	69.39336
7.618529	69.45299
7.623078	69.63394
7.627626	69.84082
7.632175	70.11591
7.636723	70.61987
7.641272	71.30113
7.64582	72.09712
7.650368	73.12006
7.654917	74.35217
7.659465	76.0147
7.664014	78.20788
7.668562	81.4516
7.673111	85.76727
7.677659	92.83707
7.682208	102.4831
7.686756	121.1405
7.691305	164.0565
7.695853	270.3388
7.700401	423.3612
7.70495	636.4969
7.709498	913.0939
7.714047	1287.005
7.718595	1562.837
7.723144	1723.26
7.727692	1751.703
7.732241	1637.867
7.736789	1356.008
7.741338	1008.884
7.745886	727.8471
7.750434	480.4035
7.754983	305.192
7.759531	184.402
7.76408	136.0491
7.768628	111.5278
7.773177	99.52991
7.777725	90.72514
7.782274	85.08075
7.786822	81.12096
7.791371	78.28863
7.795919	75.88011
7.800467	74.49646
7.805016	73.4293
7.809564	72.7396
7.814113	72.15989
7.818661	71.55189
7.82321	71.08507
7.827758	70.66125
7.832307	70.44312
7.836855	70.29693
7.841403	70.24385
7.845952	70.12188
7.8505	70.11342
7.855049	69.82804
7.859597	69.65826
7.864146	69.61057
7.868694	69.35617
7.873243	69.04023
7.877791	68.92262
7.88234	68.87281
7.886888	68.66236
7.891436	68.61434
7.895985	68.43891
7.900533	68.33308
7.905082	68.16492
7.90963	68.02946
7.914179	67.868
7.918727	67.81034
7.923276	67.89005
7.927824	67.99853
7.932373	67.96537
7.936921	67.99196
7.941469	68.0108
7.946018	68.01476
7.950566	67.84515
7.955115	67.78271
7.959663	67.88994
7.964212	67.77203
7.96876	67.78445
7.973309	67.94142
7.977857	68.05494
7.982406	68.07957
7.986954	68.11198
7.991502	68.28774
7.996051	68.51598
8.000599	68.47929
8.005148	68.61525
8.009696	68.99749
8.014245	69.14421
8.018793	69.28713
8.023342	69.78429
8.02789	70.42184
8.032438	71.06276
8.036987	71.95606
8.041535	73.46351
8.046084	75.52445
8.050632	78.04446
8.055181	82.02269
8.059729	88.53075
8.064278	102.0074
8.068826	127.0221
8.073375	181.6918
8.077923	288.5137
8.082471	436.4496
8.08702	606.1776
8.091568	800.9188
8.096117	975.9279
8.100665	1100.47
8.105214	1123.432
8.109762	1043.601
8.114311	905.201
8.118859	707.1404
8.123408	498.3999
8.127956	339.4583
8.132504	228.432
8.137053	148.8307
8.141601	113.0552
8.14615	95.69889
8.150698	86.70456
8.155247	81.12311
8.159795	77.29631
8.164344	74.55444
8.168892	72.70549
8.173441	71.16725
8.177989	70.03874
8.182537	69.311
8.187086	68.70697
8.191634	68.25339
8.196183	67.90149
8.200731	67.45129
8.20528	67.26168
8.209828	67.08849
8.214377	66.85228
8.218925	66.70485
8.223473	66.58667
8.228022	66.51435
8.23257	66.35976
8.237119	66.3333
8.241667	66.32591
8.246216	66.32377
8.250764	66.22738
8.255313	66.1663
8.259861	66.10573
8.26441	65.82046
8.268958	65.65889
8.273506	65.52193
8.278055	65.54312
8.282603	65.52642
8.287152	65.42745
8.2917	65.45057
8.296249	65.37875
8.300797	65.28133
8.305346	65.33708
8.309894	65.22437
8.314443	65.22714
8.318991	65.18701
8.323539	65.29241
8.328088	65.286
8.332636	65.31
8.337185	65.1883
8.341733	65.17288
8.346282	65.21999
8.35083	65.02433
8.355379	64.98657
8.359927	64.92635
8.364476	65.11749
8.369024	65.19415
8.373572	65.17894
8.378121	65.24868
8.382669	65.34729
8.387218	65.4157
8.391766	65.4211
8.396315	65.46102
8.400863	65.84903
8.405412	66.2052
8.40996	66.65289
8.414508	67.33393
8.419057	68.42139
8.423605	70.28119
8.428154	73.76781
8.432702	82.55511
8.437251	101.7849
8.441799	125.2011
8.446348	151.8924
8.450896	184.161
8.455445	225.8967
8.459993	246.7172
8.464541	252.3685
8.46909	243.8737
8.473638	225.5409
8.478187	184.5359
8.482735	145.309
8.487284	119.3192
8.491832	99.23536
8.496381	85.09727
8.500929	76.12876
8.505478	70.83429
8.510026	68.71204
8.514574	67.47331
8.519123	66.63059
8.523671	66.00302
8.52822	65.48119
8.532768	65.1106
8.537317	64.85311
8.541865	64.65208
8.546414	64.57954
8.550962	64.51568
8.555511	64.52087
8.560059	64.54789
8.564607	64.64893
8.569156	64.75427
8.573704	64.66891
8.578253	64.69032
8.582801	64.58776
8.58735	64.56898
8.591898	64.44205
8.596447	64.42103
8.600995	64.45674
8.605543	64.54361
8.610092	64.49632
8.61464	64.58675
8.619189	64.47966
8.623737	64.27239
8.628286	64.29009
8.632834	64.25863
8.637383	64.29444
8.641931	64.27755
8.64648	64.38272
8.651028	64.5452
8.655576	64.64927
8.660125	64.71761
8.664673	64.70783
8.669222	64.6805
8.67377	64.65715
8.678319	64.76688
8.682867	64.88061
8.687416	64.85099
8.691964	64.77185
8.696513	64.81498
8.701061	64.81797
8.705609	64.93165
8.710158	65.04705
8.714706	65.263
8.719255	65.51479
8.723803	65.77242
8.728352	65.93073
8.7329	66.33223
8.737449	66.80827
8.741997	67.43043
8.746546	68.35159
8.751094	69.57078
8.755642	71.08952
8.760191	73.48417
8.764739	77.33707
8.769288	84.3724
8.773836	98.5314
8.778385	128.3038
8.782933	179.3796
8.787482	264.7207
8.79203	365.1708
8.796578	466.1575
8.801127	590.1061
8.805675	680.6452
8.810224	715.5966
8.814772	692.5543
8.819321	619.2081
8.823869	507.2303
8.828418	394.8055
8.832966	288.9116
8.837515	209.7066
8.842063	152.0303
8.846611	111.5152
8.85116	92.20127
8.855708	81.72493
8.860257	76.48917
8.864805	73.2944
8.869354	71.1711
8.873902	69.67086
8.878451	68.58896
8.882999	67.7672
8.887548	67.10891
8.892096	66.53951
8.896644	66.2033
8.901193	65.83992
8.905741	65.54995
8.91029	65.34332
8.914838	65.21614
8.919387	65.26296
8.923935	65.14015
8.928484	64.95492
8.933032	65.00764
8.937581	64.92216
8.942129	64.78065
8.946677	64.6957
8.951226	64.73987
8.955774	64.66125
8.960323	64.63899
8.964871	64.65022
8.96942	64.62665
8.973968	64.54366
8.978517	64.56654
8.983065	64.62454
8.987613	64.70055
8.992162	64.76606
8.99671	64.70637
9.001259	64.77751
9.005807	64.90856
9.010356	64.93567
9.014904	65.06472
9.019453	65.23407
9.024001	65.54891
9.02855	65.73564
9.033098	65.77264
9.037646	65.9499
9.042195	66.27934
9.046743	66.64864
9.051292	67.0074
9.05584	67.50429
9.060389	68.20877
9.064937	69.09106
9.069486	70.01527
9.074034	71.12477
9.078583	72.67696
9.083131	74.94443
9.087679	78.08755
9.092228	82.10746
9.096776	88.46973
9.101325	101.4112
9.105873	127.1959
9.110422	176.1198
9.11497	264.0133
9.119519	405.7229
9.124067	623.7383
9.128616	846.4333
9.133164	1066.505
9.137712	1242.426
9.142261	1344.056
9.146809	1327.137
9.151358	1220.41
9.155906	1044.32
9.160455	804.3295
9.165003	589.306
9.169552	413.7536
9.1741	286.5668
9.178648	191.134
9.183197	133.1399
9.187745	105.2447
9.192294	92.08935
9.196842	84.50752
9.201391	79.26625
9.205939	75.80994
9.210488	73.58345
9.215036	71.82561
9.219585	70.36423
9.224133	69.20439
9.228681	68.30204
9.23323	67.58936
9.237778	67.09778
9.242327	66.57743
9.246875	66.1421
9.251424	65.92635
9.255972	65.53642
9.260521	65.02794
9.265069	64.73202
9.269618	64.52942
9.274166	64.38004
9.278714	64.23349
9.283263	64.11637
9.287811	64.25507
9.29236	64.291
9.296908	64.29901
9.301457	64.28857
9.306005	64.24049
9.310554	64.03595
9.315102	63.86039
9.319651	63.69382
9.324199	63.62579
9.328747	63.50063
9.333296	63.48961
9.337844	63.48939
9.342393	63.50705
9.346941	63.40951
9.35149	63.24991
9.356038	63.23383
9.360587	63.34433
9.365135	63.39223
9.369683	63.30687
9.374232	63.30916
9.37878	63.2795
9.383329	63.25221
9.387877	63.25026
9.392426	63.14745
9.396974	63.13833
9.401523	63.17282
9.406071	63.21857
9.41062	63.26301
9.415168	63.37225
9.419716	63.58911
9.424265	63.6603
9.428813	63.63374
9.433362	63.47751
9.43791	63.45398
9.442459	63.38088
9.447007	63.21094
9.451556	63.07463
9.456104	62.98389
9.460653	62.94682
9.465201	62.80376
9.469749	62.72846
9.474298	62.75078
9.478846	62.76518
9.483395	62.83195
9.487943	62.81044
9.492492	62.78724
9.49704	62.73682
9.501589	62.63279
9.506137	62.64072
9.510686	62.53039
9.515234	62.63187
9.519782	62.66691
9.524331	62.57394
9.528879	62.54548
9.533428	62.50162
9.537976	62.5408
9.542525	62.55251
9.547073	62.60317
9.551622	62.76853
9.55617	62.80672
9.560718	62.72111
9.565267	62.70824
9.569815	62.68013
9.574364	62.71249
9.578912	62.80281
9.583461	62.86428
9.588009	62.94923
9.592558	62.7546
9.597106	62.62037
9.601655	62.41292
9.606203	62.23671
9.610751	62.19591
9.6153	62.39304
9.619848	62.66557
9.624397	62.79812
9.628945	63.0171
9.633494	63.07213
9.638042	62.98901
9.642591	62.94038
9.647139	62.83882
9.651688	62.79116
9.656236	62.63514
9.660784	62.77238
9.665333	62.79306
9.669881	62.99562
9.67443	63.15393
9.678978	63.41655
9.683527	63.54802
9.688075	63.64213
9.692624	63.69387
9.697172	63.76672
9.701721	63.91443
9.706269	64.21042
9.710817	64.50114
9.715366	64.79372
9.719914	65.14175
9.724463	65.82169
9.729011	66.82103
9.73356	68.80293
9.738108	72.3834
9.742657	80.63726
9.747205	97.78416
9.751753	123.8487
9.756302	151.4235
9.76085	182.7304
9.765399	217.9143
9.769947	244.5079
9.774496	254.9503
9.779044	259.4201
9.783593	245.5652
9.788141	222.4312
9.79269	188.5877
9.797238	154.7016
9.801786	121.6913
9.806335	98.26035
9.810883	84.21073
9.815432	75.96694
9.81998	70.66399
9.824529	68.06136
9.829077	66.64512
9.833626	65.79182
9.838174	65.14478
9.842723	64.71312
9.847271	64.43892
9.851819	64.43642
9.856368	64.26781
9.860916	64.2515
9.865465	64.11153
9.870013	64.06619
9.874562	63.98764
9.87911	63.82704
9.883659	63.66234
9.888207	63.63918
9.892756	63.53192
9.897304	63.57943
9.901852	63.79179
9.906401	63.97216
9.910949	63.97997
9.915498	64.16808
9.920046	64.29984
9.924595	64.38232
9.929143	64.29584
9.933692	64.27303
9.93824	64.27632
9.942788	64.38745
9.947337	64.52686
9.951885	64.54198
9.956434	64.60979
9.960982	64.71147
9.965531	64.76147
9.970079	64.71371
9.974628	64.84002
9.979176	65.26223
9.983725	65.58151
9.988273	66.04935
9.992821	66.54928
9.99737	67.20241
10.00192	67.85699
10.00647	68.69386
10.01102	69.89279
10.01556	71.3492
10.02011	73.6361
10.02466	76.67639
10.02921	81.1725
10.03376	88.99111
10.03831	104.7302
10.04285	137.1927
10.0474	197.363
10.05195	282.4674
10.0565	411.5615
10.06105	588.4047
10.0656	751.1873
10.07015	892.3831
10.07469	992.9822
10.07924	1033.867
10.08379	980.6534
10.08834	875.6376
10.09289	737.7924
10.09744	576.2906
10.10198	421.1505
10.10653	293.2795
10.11108	211.3107
10.11563	151.3847
10.12018	115.4244
10.12473	95.55917
10.12928	85.68259
10.13382	79.79838
10.13837	75.60971
10.14292	72.9279
10.14747	71.08556
10.15202	69.79417
10.15657	68.90697
10.16111	68.21106
10.16566	67.69118
10.17021	67.19274
10.17476	66.77795
10.17931	66.38463
10.18386	65.95103
10.1884	65.66062
10.19295	65.43629
10.1975	65.26161
10.20205	65.13198
10.2066	65.05634
10.21115	65.23824
10.2157	65.19716
10.22024	65.06561
10.22479	65.11791
10.22934	64.94025
10.23389	64.93542
10.23844	64.89686
10.24299	64.79277
10.24753	64.82888
10.25208	64.93653
10.25663	65.02816
10.26118	65.10249
10.26573	65.26694
10.27028	65.41003
10.27483	65.56519
10.27937	65.85126
10.28392	66.19933
10.28847	66.43623
10.29302	66.83954
10.29757	67.52997
10.30212	68.41281
10.30666	69.2879
10.31121	70.784
10.31576	72.88712
10.32031	75.8858
10.32486	80.61044
10.32941	90.58689
10.33396	110.3392
10.3385	149.4355
10.34305	210.97
10.3476	292.7391
10.35215	395.8488
10.3567	520.0947
10.36125	631.5193
10.36579	712.6281
10.37034	757.9639
10.37489	749.0274
10.37944	689.8993
10.38399	590.769
10.38854	485.2702
10.39309	375.8551
10.39763	272.7254
10.40218	194.6405
10.40673	143.9883
10.41128	110.8957
10.41583	92.94336
10.42038	82.16308
10.42492	76.53453
10.42947	73.18275
10.43402	70.78145
10.43857	69.06402
10.44312	67.89323
10.44767	67.00417
10.45222	66.3448
10.45676	65.8125
10.46131	65.3799
10.46586	65.05602
10.47041	64.82692
10.47496	64.63388
10.47951	64.50133
10.48405	64.35751
10.4886	64.16081
10.49315	64.03255
10.4977	64.02657
10.50225	63.98405
10.5068	63.96218
10.51135	63.88819
10.51589	63.87506
10.52044	63.86395
10.52499	63.83845
10.52954	63.72006
10.53409	63.62577
10.53864	63.65551
10.54318	63.70369
10.54773	63.6219
10.55228	63.60604
10.55683	63.58395
10.56138	63.46659
10.56593	63.48934
10.57047	63.736
10.57502	63.94195
10.57957	64.23399
10.58412	64.61629
10.58867	64.98402
10.59322	65.41612
10.59777	66.05937
10.60231	66.90649
10.60686	68.35146
10.61141	70.92083
10.61596	75.83351
10.62051	85.76682
10.62506	104.6834
10.6296	132.4624
10.63415	169.0028
10.6387	213.5242
10.64325	257.7374
10.6478	295.0052
10.65235	319.9524
10.6569	325.2231
10.66144	313.6139
10.66599	287.9934
10.67054	248.3721
10.67509	207.6802
10.67964	165.5603
10.68419	133.1974
10.68873	108.0676
10.69328	89.07188
10.69783	78.03367
10.70238	72.65247
10.70693	69.1284
10.71148	66.96927
10.71603	65.76071
10.72057	65.02023
10.72512	64.58727
10.72967	64.30029
10.73422	64.02133
10.73877	63.66199
10.74332	63.33661
10.74786	63.06971
10.75241	62.87012
10.75696	62.69251
10.76151	62.57227
10.76606	62.59777
10.77061	62.63029
10.77516	62.65516
10.7797	62.62736
10.78425	62.63482
10.7888	62.57502
10.79335	62.58768
10.7979	62.53279
10.80245	62.63546
10.80699	62.75864
10.81154	62.9376
10.81609	62.91751
10.82064	62.9157
10.82519	62.88377
10.82974	62.99004
10.83429	63.19491
10.83883	63.29169
10.84338	63.43001
10.84793	63.70331
10.85248	63.76018
10.85703	63.98767
10.86158	64.36347
10.86612	64.85431
10.87067	65.39813
10.87522	66.30367
10.87977	67.64902
10.88432	69.60953
10.88887	73.07549
10.89342	79.68088
10.89796	94.99718
10.90251	122.7399
10.90706	157.9368
10.91161	203.9484
10.91616	263.508
10.92071	326.3745
10.92525	380.3058
10.9298	428.4494
10.93435	445.6049
10.9389	438.1143
10.94345	404.4634
10.948	355.3085
10.95254	297.1543
10.95709	236.7574
10.96164	188.0892
10.96619	144.4918
10.97074	106.6903
10.97529	87.16521
10.97984	76.69201
10.98438	72.00436
10.98893	69.15995
10.99348	67.38384
10.99803	66.16379
11.00258	65.53255
11.00713	65.0223
11.01167	64.64587
11.01622	64.21545
11.02077	63.90089
11.02532	63.66597
11.02987	63.47733
11.03442	63.40951
11.03897	63.47668
11.04351	63.48281
11.04806	63.50891
11.05261	63.63549
11.05716	63.57001
11.06171	63.483
11.06626	63.43909
11.0708	63.51277
11.07535	63.38527
11.0799	63.4268
11.08445	63.56381
11.089	63.58426
11.09355	63.73051
11.0981	63.89198
11.10264	64.19238
11.10719	64.49451
11.11174	64.7458
11.11629	65.01011
11.12084	65.36436
11.12539	65.73994
11.12993	66.2541
11.13448	67.01008
11.13903	68.13774
11.14358	69.66213
11.14813	71.98518
11.15268	75.32299
11.15723	80.63465
11.16177	91.10284
11.16632	112.4502
11.17087	149.0425
11.17542	207.2577
11.17997	290.8072
11.18452	406.3255
11.18906	519.6993
11.19361	624.883
11.19816	709.9824
11.20271	758.8696
11.20726	749.4398
11.21181	705.6546
11.21636	628.3887
11.2209	528.2941
11.22545	411.3093
11.23	312.2425
11.23455	231.3961
11.2391	168.1888
11.24365	125.9567
11.24819	101.227
11.25274	87.30939
11.25729	79.1366
11.26184	74.6091
11.26639	71.46792
11.27094	69.29151
11.27549	67.7673
11.28003	66.67873
11.28458	65.76628
11.28913	65.06715
11.29368	64.62083
11.29823	64.37293
11.30278	64.08387
11.30732	63.98875
11.31187	63.83849
11.31642	63.73679
11.32097	63.49366
11.32552	63.40993
11.33007	63.21206
11.33461	63.03851
11.33916	62.85403
11.34371	62.94653
11.34826	62.92879
11.35281	62.91088
11.35736	62.96215
11.36191	63.00871
11.36645	63.13945
11.371	63.22448
11.37555	63.26701
11.3801	63.27677
11.38465	63.33982
11.3892	63.4803
11.39374	63.66875
11.39829	64.02477
11.40284	64.53549
11.40739	65.18356
11.41194	66.25356
11.41649	67.69704
11.42104	70.04787
11.42558	74.02178
11.43013	82.60879
11.43468	97.69321
11.43923	122.2238
11.44378	162.0336
11.44833	204.2869
11.45287	253.5348
11.45742	300.4281
11.46197	342.7746
11.46652	367.4274
11.47107	370.2701
11.47562	358.9762
11.48017	325.0462
11.48471	284.2877
11.48926	232.8365
11.49381	186.2957
11.49836	145.7731
11.50291	115.1644
11.50746	93.90923
11.512	81.42668
11.51655	73.9278
11.5211	69.77734
11.52565	67.27557
11.5302	65.70431
11.53475	64.62083
11.5393	63.87196
11.54384	63.34032
11.54839	62.92763
11.55294	62.64393
11.55749	62.38556
11.56204	62.12676
11.56659	61.83533
11.57113	61.66755
11.57568	61.49342
11.58023	61.45438
11.58478	61.41443
11.58933	61.40002
11.59388	61.43835
11.59843	61.36045
11.60297	61.34029
11.60752	61.17256
11.61207	61.01728
11.61662	60.98656
11.62117	60.98571
11.62572	60.89047
11.63026	60.86852
11.63481	61.03782
11.63936	61.07214
11.64391	60.97567
11.64846	60.96842
11.65301	60.96642
11.65756	60.87099
11.6621	60.76956
11.66665	60.72292
11.6712	60.71311
11.67575	60.78748
11.6803	60.82096
11.68485	60.9063
11.68939	60.93781
11.69394	60.99735
11.69849	60.91609
11.70304	60.74973
11.70759	60.56971
11.71214	60.53788
11.71668	60.54147
11.72123	60.64052
11.72578	60.676
11.73033	60.85657
11.73488	60.83858
11.73943	60.79964
11.74398	60.70472
11.74852	60.56258
11.75307	60.55464
11.75762	60.55599
11.76217	60.6301
11.76672	60.62477
11.77127	60.73969
11.77581	60.69825
11.78036	60.79103
11.78491	60.85621
11.78946	60.85606
11.79401	60.90053
11.79856	60.85134
11.80311	60.69347
11.80765	60.56942
11.8122	60.53911
11.81675	60.63358
11.8213	60.71872
11.82585	60.73515
11.8304	60.84509
11.83494	60.80135
11.83949	60.7404
11.84404	60.8295
11.84859	60.8404
11.85314	60.80825
11.85769	60.76432
11.86224	60.86695
11.86678	60.87613
11.87133	60.89626
11.87588	61.03104
11.88043	61.16911
11.88498	61.42952
11.88953	61.54081
11.89407	61.75323
11.89862	61.87317
11.90317	62.00091
11.90772	62.16844
11.91227	62.33841
11.91682	62.54076
11.92137	62.90289
11.92591	63.49372
11.93046	64.5695
11.93501	66.4515
11.93956	70.36603
11.94411	77.38234
11.94866	88.67023
11.9532	105.3978
11.95775	126.9147
11.9623	155.9526
11.96685	182.8324
11.9714	206.5999
11.97595	222.557
11.9805	232.3843
11.98504	228.8605
11.98959	213.4245
11.99414	191.8553
11.99869	169.0155
12.00324	144.2419
12.00779	119.0367
12.01233	100.3507
12.01688	86.65149
12.02143	76.97253
12.02598	71.12203
12.03053	67.63819
12.03508	65.5674
12.03963	64.37511
12.04417	63.62243
12.04872	63.13868
12.05327	62.78955
12.05782	62.52817
12.06237	62.37123
12.06692	62.17974
12.07146	61.97512
12.07601	61.92922
12.08056	62.00883
12.08511	61.96213
12.08966	61.94399
12.09421	61.9633
12.09875	62.02254
12.1033	61.84106
12.10785	61.81234
12.1124	61.97232
12.11695	62.01127
12.1215	61.87913
12.12605	61.87099
12.13059	61.98689
12.13514	62.13729
12.13969	62.21738
12.14424	62.29731
12.14879	62.43454
12.15334	62.63598
12.15788	62.91417
12.16243	63.20897
12.16698	63.60688
12.17153	64.29223
12.17608	64.91153
12.18063	66.192
12.18518	68.80889
12.18972	73.88115
12.19427	82.74406
12.19882	96.4819
12.20337	115.0235
12.20792	139.2581
12.21247	164.4601
12.21701	188.2987
12.22156	207.2301
12.22611	219.5231
12.23066	221.73
12.23521	216.507
12.23976	201.7649
12.24431	181.2292
12.24885	157.1004
12.2534	134.3209
12.25795	113.1987
12.2625	95.16648
12.26705	82.35349
12.2716	74.52554
12.27614	69.67455
12.28069	66.94794
12.28524	65.33793
12.28979	64.53853
12.29434	64.02876
12.29889	63.71834
12.30344	63.5121
12.30798	63.33797
12.31253	63.17292
12.31708	62.97172
12.32163	62.92892
12.32618	62.91253
12.33073	62.8424
12.33527	62.8393
12.33982	62.91339
12.34437	63.04927
12.34892	63.11273
12.35347	63.19432
12.35802	63.42206
12.36257	63.61028
12.36711	63.74025
12.37166	63.93486
12.37621	64.27814
12.38076	64.5823
12.38531	64.91931
12.38986	65.40832
12.3944	65.8671
12.39895	66.51211
12.4035	67.36576
12.40805	68.51293
12.4126	70.26839
12.41715	72.8644
12.4217	76.82923
12.42624	84.12758
12.43079	99.57784
12.43534	127.0176
12.43989	170.0186
12.44444	232.9545
12.44899	309.7457
12.45353	403.4552
12.45808	496.4824
12.46263	578.3954
12.46718	634.757
12.47173	661.9597
12.47628	652.8785
12.48082	607.6821
12.48537	541.819
12.48992	461.1808
12.49447	370.008
12.49902	285.7139
12.50357	214.0555
12.50812	161.1762
12.51266	125.3115
12.51721	100.761
12.52176	86.50938
12.52631	78.42168
12.53086	73.81503
12.53541	70.95139
12.53995	69.08854
12.5445	67.64122
12.54905	66.56709
12.5536	65.87061
12.55815	65.35291
12.5627	64.96911
12.56725	64.66692
12.57179	64.32278
12.57634	64.04469
12.58089	63.94262
12.58544	63.83944
12.58999	63.7014
12.59454	63.67233
12.59908	63.72158
12.60363	63.70268
12.60818	63.6526
12.61273	63.71326
12.61728	63.71101
12.62183	63.72554
12.62638	63.7302
12.63092	63.8389
12.63547	63.98914
12.64002	64.37003
12.64457	64.92416
12.64912	65.46871
12.65367	66.35137
12.65821	67.67684
12.66276	70.06532
12.66731	75.21765
12.67186	84.57313
12.67641	99.13195
12.68096	124.3829
12.68551	155.422
12.69005	195.4199
12.6946	238.6644
12.69915	275.6781
12.7037	302.3167
12.70825	323.1592
12.7128	324.3044
12.71734	316.4014
12.72189	292.1026
12.72644	257.5842
12.73099	218.875
12.73554	178.5371
12.74009	143.9878
12.74464	116.7303
12.74918	96.699
12.75373	84.10277
12.75828	75.23286
12.76283	70.22543
12.76738	67.54246
12.77193	65.87391
12.77647	64.7469
12.78102	64.07634
12.78557	63.5811
12.79012	63.24138
12.79467	62.92521
12.79922	62.80445
12.80377	62.65881
12.80831	62.44381
12.81286	62.25874
12.81741	62.23869
12.82196	62.1611
12.82651	61.945
12.83106	61.78416
12.8356	61.69039
12.84015	61.71811
12.8447	61.66291
12.84925	61.7044
12.8538	61.71043
12.85835	61.70129
12.86289	61.58363
12.86744	61.54305
12.87199	61.49345
12.87654	61.35812
12.88109	61.44801
12.88564	61.4553
12.89019	61.35452
12.89473	61.45238
12.89928	61.45827
12.90383	61.42524
12.90838	61.36324
12.91293	61.37665
12.91748	61.33361
12.92202	61.37152
12.92657	61.49854
12.93112	61.46157
12.93567	61.37563
12.94022	61.22866
12.94477	61.29524
12.94932	61.38134
12.95386	61.38012
12.95841	61.36544
12.96296	61.41098
12.96751	61.50278
12.97206	61.50304
12.97661	61.34566
12.98115	61.19352
12.9857	61.17461
12.99025	61.25977
12.9948	61.24369
12.99935	61.16623
13.0039	61.31746
13.00845	61.45226
13.01299	61.48785
13.01754	61.45119
13.02209	61.5519
13.02664	61.53988
13.03119	61.56583
13.03574	61.65714
13.04028	61.77238
13.04483	61.84131
13.04938	62.02327
13.05393	62.11504
13.05848	62.16364
13.06303	62.29989
13.06758	62.45588
13.07212	62.56344
13.07667	62.66265
13.08122	62.89991
13.08577	63.17858
13.09032	63.41484
13.09487	63.93195
13.09941	64.46704
13.10396	65.05523
13.10851	65.98724
13.11306	67.07691
13.11761	68.92208
13.12216	71.66028
13.12671	76.48781
13.13125	85.61626
13.1358	102.6564
13.14035	130.9332
13.1449	173.185
13.14945	228.5231
13.154	287.5677
13.15854	354.4441
13.16309	416.6442
13.16764	463.7228
13.17219	489.1937
13.17674	495.9105
13.18129	478.6721
13.18584	440.5944
13.19038	385.5895
13.19493	326.0863
13.19948	260.2163
13.20403	201.2313
13.20858	155.7089
13.21313	122.92
13.21767	99.11259
13.22222	85.42785
13.22677	76.71761
13.23132	71.91263
13.23587	69.13547
13.24042	67.42657
13.24496	66.25917
13.24951	65.36036
13.25406	64.66013
13.25861	64.11471
13.26316	63.75759
13.26771	63.44037
13.27226	63.11277
13.2768	62.86266
13.28135	62.73256
13.2859	62.5575
13.29045	62.39312
13.295	62.30776
13.29955	62.31071
13.30409	62.24202
13.30864	62.29756
13.31319	62.38333
13.31774	62.44872
13.32229	62.60456
13.32684	62.71031
13.33139	62.88719
13.33593	63.15033
13.34048	63.72673
13.34503	64.29331
13.34958	65.4195
13.35413	67.88334
13.35868	72.44352
13.36322	79.38106
13.36777	91.63889
13.37232	111.2186
13.37687	133.3145
13.38142	155.7234
13.38597	179.6987
13.39052	199.0427
13.39506	212.8572
13.39961	220.039
13.40416	219.8187
13.40871	209.1522
13.41326	192.0463
13.41781	171.4038
13.42235	148.862
13.4269	125.7495
13.43145	107.4359
13.436	92.16347
13.44055	80.14439
13.4451	72.8663
13.44965	68.60291
13.45419	66.16804
13.45874	64.658
13.46329	63.76772
13.46784	63.09753
13.47239	62.55823
13.47694	62.24816
13.48148	61.94961
13.48603	61.75964
13.49058	61.5328
13.49513	61.4024
13.49968	61.29788
13.50423	61.22187
13.50878	61.082
13.51332	61.09094
13.51787	61.06688
13.52242	60.98824
13.52697	61.13678
13.53152	61.08179
13.53607	60.97366
13.54061	61.05754
13.54516	61.05775
13.54971	60.93571
13.55426	60.90101
13.55881	60.92486
13.56336	61.01525
13.56791	61.09756
13.57245	61.2034
13.577	61.21086
13.58155	61.20769
13.5861	61.10706
13.59065	60.91802
13.5952	60.82116
13.59974	60.77699
13.60429	60.76691
13.60884	60.70977
13.61339	60.70093
13.61794	60.67294
13.62249	60.62222
13.62703	60.51879
13.63158	60.46058
13.63613	60.55273
13.64068	60.58322
13.64523	60.64992
13.64978	60.67321
13.65433	60.7832
13.65887	60.77767
13.66342	60.6744
13.66797	60.67432
13.67252	60.71314
13.67707	60.75792
13.68162	60.67095
13.68616	60.62618
13.69071	60.57468
13.69526	60.36173
13.69981	60.36493
13.70436	60.36532
13.70891	60.46072
13.71346	60.52445
13.718	60.54395
13.72255	60.59578
13.7271	60.61905
13.73165	60.64284
13.7362	60.64633
13.74075	60.73296
13.74529	60.82555
13.74984	60.93826
13.75439	60.95472
13.75894	61.05162
13.76349	61.18159
13.76804	61.35255
13.77259	61.50515
13.77713	61.69016
13.78168	61.95096
13.78623	62.388
13.79078	63.09862
13.79533	64.29579
13.79988	66.58595
13.80442	70.16322
13.80897	77.26516
13.81352	84.16763
13.81807	93.84438
13.82262	106.2328
13.82717	118.5467
13.83172	127.5213
13.83626	135.1194
13.84081	141.5039
13.84536	142.5739
13.84991	137.1313
13.85446	131.0285
13.85901	121.177
13.86355	109.9662
13.8681	97.95681
13.87265	88.50984
13.8772	79.47707
13.88175	72.29948
13.8863	68.46947
13.89085	66.22193
13.89539	64.38772
13.89994	63.41114
13.90449	62.9003
13.90904	62.57998
13.91359	62.31729
13.91814	62.17075
13.92268	62.10397
13.92723	61.97072
13.93178	61.91791
13.93633	61.99427
13.94088	62.00149
13.94543	62.05742
13.94998	62.09003
13.95452	62.0011
13.95907	62.07664
13.96362	62.29079
13.96817	62.43465
13.97272	62.72458
13.97727	63.1421
13.98181	63.68684
13.98636	64.22361
13.99091	64.76472
13.99546	65.73127
14.00001	66.95937
14.00456	68.71853
14.0091	71.89872
14.01365	78.78585
14.0182	89.59164
14.02275	105.6902
14.0273	130.2432
14.03185	162.8598
14.0364	198.958
14.04094	241.7864
14.04549	277.0875
14.05004	307.0692
14.05459	326.0235
14.05914	335.8069
14.06369	328.252
14.06823	305.2238
14.07278	275.1924
14.07733	242.4664
14.08188	205.3533
14.08643	169.7674
14.09098	138.4213
14.09553	112.1772
14.10007	93.06525
14.10462	82.35744
14.10917	74.92436
14.11372	70.2358
14.11827	67.57353
14.12282	65.98595
14.12736	65.13542
14.13191	64.62157
14.13646	64.13712
14.14101	63.77396
14.14556	63.52882
14.15011	63.30655
14.15466	63.13705
14.1592	63.11923
14.16375	63.09385
14.1683	63.13989
14.17285	63.20347
14.1774	63.26822
14.18195	63.30816
14.18649	63.33323
14.19104	63.58632
14.19559	63.98842
14.20014	64.39736
14.20469	65.13949
14.20924	66.19009
14.21379	67.6581
14.21833	70.18188
14.22288	74.36993
14.22743	81.67667
14.23198	94.56502
14.23653	112.532
14.24108	136.1762
14.24562	171.9471
14.25017	208.3228
14.25472	241.0283
14.25927	271.7919
14.26382	298.161
14.26837	314.306
14.27292	317.384
14.27746	309.5041
14.28201	290.932
14.28656	260.558
14.29111	226.0749
14.29566	191.2138
14.30021	156.8109
14.30475	125.9068
14.3093	105.5163
14.31385	89.36307
14.3184	79.53749
14.32295	72.62032
14.3275	68.85574
14.33205	66.98028
14.33659	65.80814
14.34114	65.06059
14.34569	64.48639
14.35024	64.01279
14.35479	63.63041
14.35934	63.37623
14.36388	63.17233
14.36843	63.04623
14.37298	62.94672
14.37753	62.8899
14.38208	62.99252
14.38663	62.99367
14.39117	63.13074
14.39572	63.22996
14.40027	63.29986
14.40482	63.58969
14.40937	64.05566
14.41392	64.55272
14.41847	65.31799
14.42301	66.49989
14.42756	68.67187
14.43211	72.08234
14.43666	78.64262
14.44121	88.66842
14.44576	104.3024
14.4503	126.4628
14.45485	153.0934
14.4594	182.3752
14.46395	212.6398
14.4685	235.5633
14.47305	250.4798
14.4776	262.2993
14.48214	264.1198
14.48669	255.8616
14.49124	238.747
14.49579	216.3203
14.50034	188.8543
14.50489	159.8516
14.50943	135.2986
14.51398	114.3638
14.51853	95.67982
14.52308	83.90007
14.52763	76.44418
14.53218	70.74891
14.53673	67.68227
14.54127	65.81742
14.54582	64.68815
14.55037	64.07475
14.55492	63.61128
14.55947	63.15245
14.56402	62.89306
14.56856	62.81031
14.57311	62.65301
14.57766	62.46607
14.58221	62.36891
14.58676	62.31267
14.59131	62.26324
14.59586	62.26601
14.6004	62.2497
14.60495	62.31881
14.6095	62.4164
14.61405	62.60467
14.6186	62.83721
14.62315	63.17917
14.62769	63.65982
14.63224	64.5732
14.63679	66.01414
14.64134	69.07758
14.64589	74.46404
14.65044	81.39043
14.65499	92.28816
14.65953	107.1988
14.66408	121.9765
14.66863	137.8593
14.67318	152.8367
14.67773	165.5311
14.68228	174.3189
14.68682	177.9175
14.69137	176.4578
14.69592	171.2532
14.70047	160.6103
14.70502	145.4812
14.70957	128.6986
14.71412	113.8533
14.71866	99.11454
14.72321	86.47817
14.72776	77.61966
14.73231	72.10215
14.73686	67.62085
14.74141	65.07791
14.74595	63.76847
14.7505	63.07232
14.75505	62.55469
14.7596	62.34151
14.76415	62.18203
14.7687	61.93885
14.77324	61.81802
14.77779	61.67033
14.78234	61.58008
14.78689	61.4832
14.79144	61.47914
14.79599	61.51332
14.80054	61.58971
14.80508	61.52805
14.80963	61.55996
14.81418	61.57419
14.81873	61.68392
14.82328	61.78309
14.82783	61.93637
14.83237	62.28352
14.83692	62.67081
14.84147	63.73226
14.84602	65.5248
14.85057	68.49879
14.85512	72.7543
14.85967	79.63124
14.86421	86.85841
14.86876	95.25038
14.87331	104.1265
14.87786	113.5291
14.88241	119.0397
14.88696	123.5267
14.8915	123.6719
14.89605	122.9181
14.9006	118.2916
14.90515	112.7114
14.9097	104.9832
14.91425	96.69156
14.9188	87.44159
14.92334	80.03947
14.92789	73.62407
14.93244	69.56108
14.93699	66.01102
14.94154	64.07198
14.94609	62.83798
14.95063	62.19215
14.95518	61.75431
14.95973	61.65796
14.96428	61.59156
14.96883	61.56597
14.97338	61.61098
14.97793	61.65901
14.98247	61.65384
14.98702	61.62757
14.99157	61.71242
14.99612	61.81763
15.00067	61.8049
15.00522	61.89859
15.00976	61.96801
15.01431	62.24109
15.01886	62.56081
15.02341	63.12117
15.02796	63.75882
15.03251	64.81165
15.03706	66.5965
15.0416	69.69786
15.04615	75.07612
15.0507	83.76
15.05525	96.72774
15.0598	114.1659
15.06435	135.6986
15.06889	160.7943
15.07344	187.2126
15.07799	210.8096
15.08254	229.212
15.08709	243.3918
15.09164	247.3252
15.09619	243.3816
15.10073	231.4794
15.10528	214.1021
15.10983	190.0751
15.11438	165.2537
15.11893	140.289
15.12348	119.1382
15.12802	99.5746
15.13257	86.83846
15.13712	77.9138
15.14167	71.81984
15.14622	67.86874
15.15077	65.53515
15.15531	64.15529
15.15986	63.22432
15.16441	62.77455
15.16896	62.37738
15.17351	62.15947
15.17806	61.9399
15.18261	61.78652
15.18715	61.62194
15.1917	61.54451
15.19625	61.47443
15.2008	61.45916
15.20535	61.42182
15.2099	61.35225
15.21444	61.28432
15.21899	61.20322
15.22354	61.05824
15.22809	60.90978
15.23264	60.94254
15.23719	60.909
15.24174	60.92452
15.24628	60.90739
15.25083	60.93826
15.25538	60.95277
15.25993	60.9289
15.26448	60.78825
15.26903	60.81385
15.27357	60.90643
15.27812	60.91729
15.28267	60.84414
15.28722	60.92607
15.29177	60.80577
15.29632	60.78331
15.30087	60.75948
15.30541	60.71111
15.30996	60.65546
15.31451	60.76501
15.31906	60.83916
15.32361	60.76865
15.32816	60.78309
15.3327	60.77559
15.33725	60.84327
15.3418	60.86242
15.34635	60.74969
15.3509	60.74871
15.35545	60.80074
15.36	60.77822
15.36454	60.78824
15.36909	60.97815
15.37364	61.0232
15.37819	61.08255
15.38274	61.09064
15.38729	61.09005
15.39183	61.07768
15.39638	61.08628
15.40093	61.12666
15.40548	61.2959
15.41003	61.35643
15.41458	61.5308
15.41913	61.62973
15.42367	61.98382
15.42822	62.37365
15.43277	63.14354
15.43732	64.63323
15.44187	67.24741
15.44642	70.87299
15.45096	76.26795
15.45551	84.18251
15.46006	94.24027
15.46461	103.7417
15.46916	113.8351
15.47371	123.686
15.47826	131.6115
15.4828	135.4836
15.48735	136.0477
15.4919	136.0934
15.49645	132.8101
15.501	125.4662
15.50555	115.9473
15.51009	105.2802
15.51464	94.80523
15.51919	85.80123
15.52374	77.21095
15.52829	71.81955
15.53284	67.88208
15.53738	65.04465
15.54193	63.51225
15.54648	62.70406
15.55103	62.28659
15.55558	62.17558
15.56013	62.03344
15.56468	61.96396
15.56922	61.99411
15.57377	62.04354
15.57832	62.0416
15.58287	62.15262
15.58742	62.29218
15.59197	62.47622
15.59651	62.76001
15.60106	62.99976
15.60561	63.43793
15.61016	64.1068
15.61471	64.72962
15.61926	65.98682
15.62381	68.29397
15.62835	72.15405
15.6329	78.91969
15.63745	89.57111
15.642	106.374
15.64655	129.9108
15.6511	157.2549
15.65564	187.3414
15.66019	220.0076
15.66474	250.2926
15.66929	275.028
15.67384	294.0622
15.67839	303.1842
15.68294	304.7526
15.68748	293.7083
15.69203	274.192
15.69658	248.2619
15.70113	215.6714
15.70568	182.5234
15.71023	152.5638
15.71477	127.3176
15.71932	106.6069
15.72387	90.13126
15.72842	79.64699
15.73297	73.32117
15.73752	69.29353
15.74207	66.70292
15.74661	65.1608
15.75116	64.22218
15.75571	63.67053
15.76026	63.2331
15.76481	62.99459
15.76936	62.77635
15.7739	62.73026
15.77845	62.67923
15.783	62.6128
15.78755	62.37685
15.7921	62.32091
15.79665	62.27122
15.8012	62.24257
15.80574	62.45214
15.81029	62.77176
15.81484	63.61973
15.81939	65.17493
15.82394	67.65608
15.82849	71.68613
15.83303	77.80241
15.83758	86.64508
15.84213	96.64283
15.84668	107.9885
15.85123	119.0433
15.85578	129.6873
15.86033	138.5598
15.86487	144.4678
15.86942	146.3941
15.87397	145.8533
15.87852	142.8271
15.88307	136.6053
15.88762	127.3384
15.89216	116.7418
15.89671	106.1348
15.90126	94.15488
15.90581	85.1767
15.91036	77.65889
15.91491	72.30789
15.91945	68.32376
15.924	65.68174
15.92855	64.05347
15.9331	62.92309
15.93765	62.21763
15.9422	61.82022
15.94675	61.63348
15.95129	61.46035
15.95584	61.3841
15.96039	61.38217
15.96494	61.34027
15.96949	61.39075
15.97404	61.41175
15.97858	61.48653
15.98313	61.46442
15.98768	61.49323
15.99223	61.50689
15.99678	61.68946
16.00133	62.0327
16.00588	62.631
16.01042	63.74176
16.01497	65.33199
16.01952	67.80269
16.02407	71.1853
16.02862	75.24168
16.03317	80.41523
16.03771	85.91994
16.04226	91.63142
16.04681	96.93907
16.05136	101.5816
16.05591	104.1831
16.06046	105.5685
16.06501	105.0187
16.06955	102.6297
16.0741	98.10168
16.07865	93.51522
16.0832	87.95525
16.08775	81.88821
16.0923	76.54398
16.09684	71.95796
16.10139	68.27499
16.10594	65.88882
16.11049	64.29882
16.11504	63.25092
16.11959	62.44541
16.12414	62.09518
16.12868	61.96629
16.13323	61.82305
16.13778	61.81739
16.14233	61.69598
16.14688	61.59163
16.15143	61.57883
16.15597	61.56831
16.16052	61.5103
16.16507	61.5766
16.16962	61.63934
16.17417	61.64969
16.17872	61.69801
16.18327	61.77985
16.18781	62.02305
16.19236	62.59458
16.19691	63.45597
16.20146	64.85782
16.20601	66.70742
16.21056	69.52508
16.2151	73.14713
16.21965	77.59209
16.2242	81.90613
16.22875	86.61183
16.2333	91.08901
16.23785	93.94412
16.2424	96.11285
16.24694	97.11923
16.25149	96.91669
16.25604	94.85941
16.26059	92.1024
16.26514	88.54453
16.26969	83.83369
16.27423	79.22908
16.27878	75.04337
16.28333	71.41839
16.28788	68.01517
16.29243	65.80898
16.29698	64.42667
16.30152	63.46883
16.30607	62.90236
16.31062	62.57716
16.31517	62.38225
16.31972	62.25506
16.32427	62.22079
16.32882	62.15692
16.33336	62.14136
16.33791	62.36934
16.34246	62.5114
16.34701	62.7084
16.35156	62.91577
16.35611	63.28304
16.36065	63.62045
16.3652	64.08782
16.36975	64.97604
16.3743	66.32814
16.37885	68.65331
16.3834	72.77438
16.38795	79.43819
16.39249	88.91761
16.39704	101.9782
16.40159	119.2149
16.40614	138.9783
16.41069	158.6718
16.41524	176.8054
16.41978	193.8313
16.42433	205.8361
16.42888	212.366
16.43343	213.2085
16.43798	208.615
16.44253	199.2569
16.44708	184.6528
16.45162	167.4047
16.45617	147.6108
16.46072	129.2701
16.46527	111.5672
16.46982	97.08301
16.47437	85.65071
16.47891	77.51397
16.48346	72.02149
16.48801	68.50344
16.49256	66.32255
16.49711	65.08585
16.50166	64.28675
16.50621	63.74213
16.51075	63.36733
16.5153	63.20252
16.51985	62.9585
16.5244	62.91144
16.52895	62.94369
16.5335	62.96362
16.53804	63.14882
16.54259	63.48338
16.54714	63.68711
16.55169	64.15548
16.55624	64.95181
16.56079	66.43372
16.56534	68.98491
16.56988	73.43961
16.57443	79.68382
16.57898	88.36339
16.58353	99.62909
16.58808	112.3347
16.59263	125.6643
16.59717	140.8439
16.60172	152.0405
16.60627	160.015
16.61082	164.7316
16.61537	167.9059
16.61992	163.6932
16.62447	157.8139
16.62901	148.1204
16.63356	135.7841
16.63811	120.392
16.64266	108.9765
16.64721	97.3004
16.65176	86.90484
16.6563	78.82837
16.66085	73.39032
16.6654	69.03682
16.66995	66.22862
16.6745	64.44049
16.67905	63.4179
16.68359	62.86035
16.68814	62.48995
16.69269	62.26126
16.69724	62.0644
16.70179	61.8527
16.70634	61.8066
16.71089	61.64933
16.71543	61.69393
16.71998	61.6939
16.72453	61.72963
16.72908	61.64814
16.73363	61.53736
16.73818	61.49844
16.74272	61.49485
16.74727	61.47183
16.75182	61.53788
16.75637	61.54807
16.76092	61.45023
16.76547	61.36184
16.77002	61.23854
16.77456	61.18119
16.77911	61.16558
16.78366	61.17639
16.78821	61.23151
16.79276	61.24183
16.79731	61.28546
16.80185	61.4469
16.8064	61.5755
16.81095	61.55785
16.8155	61.49931
16.82005	61.46846
16.8246	61.41548
16.82915	61.39095
16.83369	61.23301
16.83824	61.20471
16.84279	61.24413
16.84734	61.12873
16.85189	61.05431
16.85644	61.139
16.86098	61.23116
16.86553	61.20827
16.87008	61.36382
16.87463	61.30946
16.87918	61.41289
16.88373	61.47976
16.88828	61.59514
16.89282	61.56701
16.89737	61.58369
16.90192	61.75202
16.90647	61.74028
16.91102	61.83766
16.91557	61.97903
16.92011	62.20579
16.92466	62.63295
16.92921	63.4691
16.93376	64.23707
16.93831	65.53038
16.94286	67.23419
16.94741	69.58393
16.95195	71.41167
16.9565	73.98581
16.96105	75.92951
16.9656	76.95856
16.97015	77.17197
16.9747	77.48994
16.97924	76.50169
16.98379	75.50029
16.98834	74.27877
16.99289	72.7926
16.99744	70.50026
17.00199	68.46755
17.00654	66.88064
17.01108	65.32034
17.01563	64.07677
17.02018	63.44833
17.02473	62.91764
17.02928	62.65829
17.03383	62.64552
17.03837	62.4271
17.04292	62.32875
17.04747	62.21078
17.05202	62.11186
17.05657	62.05752
17.06112	61.94355
17.06566	62.04232
17.07021	62.20529
17.07476	62.47947
17.07931	62.72089
17.08386	63.09035
17.08841	63.61517
17.09296	64.39703
17.0975	65.59463
17.10205	67.37592
17.1066	70.70824
17.11115	75.70903
17.1157	82.12844
17.12025	89.72543
17.12479	98.81831
17.12934	108.6184
17.13389	117.2362
17.13844	124.5525
17.14299	131.5039
17.14754	135.6771
17.15209	136.8339
17.15663	135.9261
17.16118	132.778
17.16573	127.2486
17.17028	118.5644
17.17483	110.1292
17.17938	101.1162
17.18392	92.13644
17.18847	83.6086
17.19302	77.47575
17.19757	72.49832
17.20212	69.12695
17.20667	66.77114
17.21122	65.39985
17.21576	64.86135
17.22031	64.41012
17.22486	64.05961
17.22941	63.96117
17.23396	64.0207
17.23851	64.00247
17.24305	64.02378
17.2476	64.13964
17.25215	64.35199
17.2567	64.64913
17.26125	65.01517
17.2658	65.89013
17.27035	67.24465
17.27489	69.9275
17.27944	74.0117
17.28399	80.8206
17.28854	90.20513
17.29309	102.2707
17.29764	116.6735
17.30218	133.2899
17.30673	150.1037
17.31128	164.2814
17.31583	177.4704
17.32038	188.067
17.32493	194.5191
17.32948	196.2265
17.33402	193.6495
17.33857	185.4576
17.34312	173.7551
17.34767	159.311
17.35222	143.7131
17.35677	126.7641
17.36131	111.0872
17.36586	97.62886
17.37041	86.65548
17.37496	78.96609
17.37951	73.52782
17.38406	69.68788
17.38861	67.40364
17.39315	66.13616
17.3977	65.29974
17.40225	64.94753
17.4068	64.67722
17.41135	64.34165
17.4159	64.17538
17.42044	64.18083
17.42499	64.23118
17.42954	64.25922
17.43409	64.66114
17.43864	65.15609
17.44319	66.10496
17.44773	67.63882
17.45228	70.35258
17.45683	74.26171
17.46138	79.79227
17.46593	87.37555
17.47048	96.00216
17.47503	105.8615
17.47957	116.4602
17.48412	126.0081
17.48867	133.888
17.49322	141.2713
17.49777	145.545
17.50232	146.184
17.50686	143.2277
17.51141	139.7235
17.51596	132.5299
17.52051	123.4604
17.52506	113.0604
17.52961	103.8005
17.53416	94.16499
17.5387	85.6373
17.54325	78.71677
17.5478	73.79402
17.55235	69.90338
17.5569	67.46687
17.56145	66.02416
17.56599	65.01754
17.57054	64.40326
17.57509	63.95518
17.57964	63.63589
17.58419	63.38416
17.58874	63.09107
17.59329	63.02737
17.59783	63.17743
17.60238	63.21783
17.60693	63.35857
17.61148	63.61635
17.61603	64.25399
17.62058	64.97717
17.62512	66.55232
17.62967	68.93549
17.63422	72.23337
17.63877	76.41565
17.64332	81.71526
17.64787	86.87557
17.65242	92.147
17.65696	96.53411
17.66151	100.2835
17.66606	102.7495
17.67061	103.7607
17.67516	103.4186
17.67971	102.0111
17.68425	99.29477
17.6888	95.93236
17.69335	91.13453
17.6979	86.54211
17.70245	81.60711
17.707	77.12393
17.71155	73.30276
17.71609	69.76979
17.72064	67.33707
17.72519	65.72645
17.72974	64.56158
17.73429	63.66416
17.73884	63.19062
17.74338	63.02707
17.74793	63.04144
17.75248	63.09574
17.75703	63.16342
17.76158	63.11365
17.76613	63.04715
17.77068	63.14518
17.77522	63.46185
17.77977	63.83624
17.78432	64.714
17.78887	66.23772
17.79342	68.47762
17.79797	72.23029
17.80251	77.35197
17.80706	84.21611
17.81161	92.3773
17.81616	102.1071
17.82071	111.5262
17.82526	121.4287
17.8298	129.3761
17.83435	135.9067
17.8389	139.2448
17.84345	141.3842
17.848	140.4321
17.85255	136.1964
17.8571	129.9025
17.86164	122.3577
17.86619	112.9121
17.87074	103.0219
17.87529	93.54306
17.87984	85.83486
17.88439	78.92445
17.88893	73.64913
17.89348	69.65516
17.89803	66.98181
17.90258	65.28687
17.90713	64.28472
17.91168	63.83528
17.91623	63.55281
17.92077	63.48469
17.92532	63.33981
17.92987	63.2599
17.93442	63.1833
17.93897	63.26625
17.94352	63.5201
17.94806	64.02057
17.95261	65.10012
17.95716	66.78204
17.96171	69.7879
17.96626	74.86359
17.97081	81.85184
17.97536	91.45278
17.9799	103.2286
17.98445	116.2492
17.989	131.3831
17.99355	144.5345
17.9981	154.7729
18.00265	162.3043
18.00719	169.1641
18.01174	170.466
18.01629	167.2933
18.02084	162.533
18.02539	155.3327
18.02994	144.0697
18.03449	131.9124
18.03903	118.6849
18.04358	106.7749
18.04813	95.38082
18.05268	86.03916
18.05723	78.21337
18.06178	72.62888
18.06632	68.80769
18.07087	66.26034
18.07542	64.4849
18.07997	63.58146
18.08452	63.01475
18.08907	62.58812
18.09362	62.24661
18.09816	61.96597
18.10271	61.82345
18.10726	61.77463
18.11181	61.6475
18.11636	61.75269
18.12091	61.75854
18.12545	61.6236
18.13	61.36348
18.13455	61.22424
18.1391	61.06618
18.14365	60.92734
18.1482	61.09965
18.15275	61.0968
18.15729	61.1527
18.16184	61.32768
18.16639	61.41306
18.17094	61.42738
18.17549	61.32826
18.18004	61.35902
18.18458	61.33726
18.18913	61.29976
18.19368	61.28483
18.19823	61.26354
18.20278	61.19473
18.20733	61.23289
18.21187	61.23
18.21642	61.21205
18.22097	61.16369
18.22552	61.19954
18.23007	61.2206
18.23462	61.29186
18.23917	61.28556
18.24371	61.37067
18.24826	61.49566
18.25281	61.52674
18.25736	61.5453
18.26191	61.50742
18.26646	61.35241
18.271	61.29865
18.27555	61.18529
18.2801	61.40418
18.28465	61.76509
18.2892	62.64461
18.29375	64.11155
18.2983	66.21875
18.30284	68.90112
18.30739	72.56047
18.31194	77.48328
18.31649	82.69953
18.32104	88.85789
18.32559	95.69692
18.33013	101.4112
18.33468	105.7039
18.33923	108.9734
18.34378	110.3755
18.34833	110.3954
18.35288	109.2131
18.35743	106.2965
18.36197	101.7336
18.36652	96.78217
18.37107	91.5323
18.37562	83.67941
18.38017	78.34048
18.38472	74.07166
18.38926	70.16077
18.39381	66.8532
18.39836	65.18317
18.40291	63.83738
18.40746	63.08379
18.41201	62.67265
18.41656	62.31365
18.4211	61.97311
18.42565	61.72259
18.4302	61.62866
18.43475	61.52839
18.4393	61.52744
18.44385	61.81806
18.44839	62.20459
18.45294	63.10744
18.45749	64.55659
18.46204	66.70613
18.46659	69.88523
18.47114	74.91473
18.47569	80.1798
18.48023	87.0778
18.48478	93.97955
18.48933	100.6839
18.49388	107.9726
18.49843	113.9067
18.50298	117.1128
18.50752	118.8342
18.51207	118.8287
18.51662	117.5354
18.52117	113.3916
18.52572	108.4941
18.53027	103.3458
18.53482	97.18345
18.53936	90.55535
18.54391	83.73933
18.54846	77.67515
18.55301	73.03366
18.55756	69.09939
18.56211	66.51765
18.56665	64.83175
18.5712	63.57899
18.57575	62.72899
18.5803	62.2897
18.58485	61.97245
18.5894	61.74792
18.59394	61.64977
18.59849	61.47929
18.60304	61.54399
18.60759	61.70283
18.61214	62.02756
18.61669	62.57202
18.62124	63.53793
18.62578	65.11389
18.63033	67.38752
18.63488	70.09039
18.63943	74.21806
18.64398	77.93145
18.64853	81.93343
18.65307	86.56635
18.65762	90.29237
18.66217	93.03571
18.66672	95.35737
18.67127	96.61169
18.67582	96.98726
18.68037	96.19461
18.68491	94.58648
18.68946	91.57893
18.69401	87.92963
18.69856	84.26311
18.70311	79.94682
18.70766	75.25247
18.7122	71.70468
18.71675	68.49776
18.7213	65.94387
18.72585	64.0056
18.7304	62.41821
18.73495	61.72509
18.7395	61.26811
18.74404	61.09426
18.74859	61.09637
18.75314	61.15604
18.75769	61.3722
18.76224	61.5756
18.76679	61.74493
18.77133	61.99615
18.77588	62.72129
18.78043	63.86039
18.78498	65.71648
18.78953	68.58401
18.79408	72.70361
18.79863	77.95097
18.80317	84.34988
18.80772	91.48965
18.81227	98.72514
18.81682	105.7012
18.82137	112.0144
18.82592	117.4651
18.83046	121.1957
18.83501	122.5314
18.83956	121.7431
18.84411	120.0582
18.84866	116.234
18.85321	109.5679
18.85776	103.0181
18.8623	97.12397
18.86685	89.62412
18.8714	82.54671
18.87595	76.89014
18.8805	72.59354
18.88505	68.53719
18.88959	65.90818
18.89414	64.26911
18.89869	63.09726
18.90324	62.25241
18.90779	61.62354
18.91234	61.07005
18.91689	60.82377
18.92143	60.75238
18.92598	60.61789
18.93053	60.55998
18.93508	60.66744
18.93963	60.78685
18.94418	60.62092
18.94872	60.60907
18.95327	60.51713
18.95782	60.66886
18.96237	60.58569
18.96692	60.47448
18.97147	60.41169
18.97601	60.32955
18.98056	60.33267
18.98511	60.22258
18.98966	60.14778
18.99421	60.23769
18.99876	60.15157
19.00331	59.98912
19.00785	60.04989
19.0124	60.0318
19.01695	59.98839
19.0215	60.02547
19.02605	60.15911
19.0306	60.18484
19.03514	60.14556
19.03969	60.19792
19.04424	60.33342
19.04879	60.43791
19.05334	60.57632
19.05789	60.58952
19.06244	60.7177
19.06698	60.87519
19.07153	60.98647
19.07608	61.03399
19.08063	61.2234
19.08518	61.31958
19.08973	61.66129
19.09427	61.9834
19.09882	62.85715
19.10337	64.4082
19.10792	66.84037
19.11247	70.12617
19.11702	74.45406
19.12157	79.57299
19.12611	85.56187
19.13066	91.35315
19.13521	97.24578
19.13976	102.2267
19.14431	106.0201
19.14886	109.1165
19.1534	110.1455
19.15795	109.656
19.1625	108.6583
19.16705	106.0883
19.1716	101.8157
19.17615	96.57835
19.1807	91.13795
19.18524	85.40379
19.18979	79.31634
19.19434	74.65914
19.19889	70.59927
19.20344	67.53152
19.20799	65.54649
19.21253	64.11017
19.21708	63.01782
19.22163	62.31694
19.22618	61.95967
19.23073	61.73237
19.23528	61.60196
19.23983	61.58058
19.24437	61.81912
19.24892	62.54825
19.25347	63.56903
19.25802	65.11021
19.26257	68.10049
19.26712	72.20567
19.27166	77.76781
19.27621	85.21871
19.28076	93.23988
19.28531	102.0045
19.28986	111.6791
19.29441	119.5686
19.29896	126.9168
19.3035	132.7801
19.30805	136.6768
19.3126	138.873
19.31715	138.9277
19.3217	136.6254
19.32625	131.2041
19.33079	124.7184
19.33534	117.006
19.33989	107.1375
19.34444	97.80914
19.34899	89.88989
19.35354	82.44688
19.35808	76.06588
19.36263	71.2653
19.36718	67.53164
19.37173	65.04449
19.37628	63.32269
19.38083	62.17649
19.38538	61.74615
19.38992	61.48546
19.39447	62.37468
19.39902	63.94513
19.40357	64.12672
19.40812	64.13313
19.41267	64.07896
19.41721	64.21859
19.42176	62.60228
19.42631	61.72354
19.43086	61.7928
19.43541	61.79477
19.43996	61.74295
19.44451	61.32148
19.44905	61.17876
19.4536	61.22656
19.45815	61.3129
19.4627	61.33853
19.46725	61.28083
19.4718	61.52929
19.47634	61.47119
19.48089	61.73338
19.48544	62.02341
19.48999	62.53388
19.49454	63.01203
19.49909	63.19674
19.50364	63.35006
19.50818	62.86007
19.51273	62.49217
19.51728	61.66783
19.52183	61.29332
19.52638	61.0073
19.53093	60.77784
19.53547	60.56198
19.54002	60.42992
19.54457	60.63632
19.54912	60.53546
19.55367	60.58139
19.55822	60.62902
19.56277	60.80661
19.56731	60.83994
19.57186	60.86295
19.57641	60.95397
19.58096	61.24451
19.58551	61.74464
19.59006	62.3089
19.5946	62.80452
19.59915	63.53405
19.6037	64.08167
19.60825	64.62932
19.6128	64.98495
19.61735	65.22524
19.6219	65.37404
19.62644	65.2564
19.63099	65.06003
19.63554	64.7197
19.64009	64.32724
19.64464	63.96194
19.64919	63.56409
19.65373	63.11341
19.65828	62.51448
19.66283	62.04647
19.66738	61.49376
19.67193	61.10276
19.67648	60.85476
19.68103	60.90623
19.68557	60.86348
19.69012	60.86071
19.69467	61.01943
19.69922	61.14922
19.70377	61.46804
19.70832	61.74927
19.71286	62.45736
19.71741	63.34344
19.72196	64.61602
19.72651	66.59525
19.73106	69.69754
19.73561	73.83871
19.74015	79.51763
19.7447	86.6697
19.74925	94.39273
19.7538	102.9734
19.75835	111.2269
19.7629	118.6091
19.76745	124.6962
19.77199	129.471
19.77654	132.0934
19.78109	133.8169
19.78564	132.194
19.79019	128.2648
19.79474	122.9373
19.79928	116.5444
19.80383	108.4162
19.80838	99.19271
19.81293	92.1311
19.81748	85.28217
19.82203	78.46886
19.82658	73.75962
19.83112	69.6255
19.83567	66.69507
19.84022	65.16089
19.84477	63.90071
19.84932	63.30307
19.85387	63.03623
19.85841	62.86554
19.86296	62.9538
19.86751	63.37212
19.87206	64.16711
19.87661	65.05091
19.88116	66.86267
19.88571	69.87487
19.89025	73.33258
19.8948	78.49419
19.89935	85.25883
19.9039	91.29498
19.90845	98.04478
19.913	105.2864
19.91754	110.2697
19.92209	114.0796
19.92664	116.7318
19.93119	118.7079
19.93574	119.0214
19.94029	117.1209
19.94484	114.5129
19.94938	110.1499
19.95393	104.4755
19.95848	98.29009
19.96303	90.86095
19.96758	85.18227
19.97213	79.21944
19.97667	74.33838
19.98122	70.97079
19.98577	67.5238
19.99032	65.33377
19.99487	64.15854
19.99942	62.97329
20.00397	62.20272
20.00851	61.97825
20.01306	61.90674
20.01761	61.6601
20.02216	61.64675
20.02671	61.7271
20.03126	61.72943
20.0358	61.84031
20.04035	62.25045
20.0449	62.93765
20.04945	63.68386
20.054	64.49318
20.05855	65.32625
20.0631	66.31366
20.06764	67.22127
20.07219	68.04491
20.07674	68.84744
20.08129	69.23696
20.08584	69.52542
20.09039	69.43516
20.09493	68.84064
20.09948	68.05088
20.10403	67.31514
20.10858	66.42287
20.11313	65.56557
20.11768	64.55057
20.12222	63.94839
20.12677	63.22041
20.13132	62.4052
20.13587	61.68174
20.14042	61.19611
20.14497	60.88745
20.14952	60.69281
20.15406	60.57138
20.15861	60.54156
20.16316	60.72858
20.16771	60.8812
20.17226	61.09737
20.17681	61.70398
20.18135	62.44549
20.1859	63.53242
20.19045	65.45773
20.195	67.64675
20.19955	70.48735
20.2041	74.16444
20.20865	78.35093
20.21319	82.68704
20.21774	86.65378
20.22229	90.59313
20.22684	92.79861
20.23139	93.87426
20.23594	93.75822
20.24048	93.20686
20.24503	91.97725
20.24958	89.39977
20.25413	86.66549
20.25868	84.18449
20.26323	80.65939
20.26778	76.43446
20.27232	72.93296
20.27687	69.82722
20.28142	66.96766
20.28597	64.92635
20.29052	63.72316
20.29507	62.63353
20.29961	62.11099
20.30416	62.08068
20.30871	62.05711
20.31326	62.24209
20.31781	62.52237
20.32236	63.08769
20.32691	64.05059
20.33145	65.49519
20.336	67.79805
20.34055	70.98854
20.3451	75.97571
20.34965	81.88502
20.3542	88.25079
20.35874	96.47233
20.36329	104.2853
20.36784	111.8168
20.37239	118.2604
20.37694	122.9721
20.38149	127.2551
20.38604	129.5727
20.39058	128.4218
20.39513	126.5032
20.39968	123.2598
20.40423	117.0902
20.40878	109.3851
20.41333	102.3385
20.41787	94.95772
20.42242	86.94034
20.42697	81.24374
20.43152	76.36646
20.43607	71.80894
20.44062	68.90752
20.44517	66.66958
20.44971	64.80048
20.45426	63.52019
20.45881	62.63618
20.46336	62.23256
20.46791	62.08303
20.47246	61.89756
20.477	62.13161
20.48155	62.88266
20.4861	63.7344
20.49065	65.04568
20.4952	66.95126
20.49975	70.12752
20.50429	73.04819
20.50884	76.31277
20.51339	79.81443
20.51794	82.19086
20.52249	84.4269
20.52704	86.60451
20.53159	87.61079
20.53613	87.4435
20.54068	87.34277
20.54523	86.61002
20.54978	84.32796
20.55433	82.04363
20.55888	79.32359
20.56342	76.0148
20.56797	72.882
20.57252	70.40683
20.57707	67.26464
20.58162	65.08315
20.58617	63.58667
20.59072	62.41822
20.59526	61.50273
20.59981	61.10165
20.60436	60.70177
20.60891	60.44312
20.61346	60.36439
20.61801	60.21887
20.62255	60.19519
20.6271	59.98685
20.63165	59.74864
20.6362	59.38349
20.64075	59.51479
20.6453	59.6586
20.64985	59.6904
20.65439	59.80407
20.65894	60.27022
20.66349	60.26051
20.66804	59.89978
20.67259	59.79514
20.67714	59.97189
20.68168	59.98458
20.68623	60.10122
20.69078	60.26291
20.69533	60.41146
20.69988	60.43503
20.70443	60.18209
20.70898	59.87584
20.71352	59.74083
20.71807	59.63597
20.72262	59.55345
20.72717	59.5923
20.73172	59.77047
20.73627	59.83658
20.74081	59.95778
20.74536	59.91712
20.74991	59.71219
20.75446	59.67716
20.75901	59.8607
20.76356	60.13422
20.76811	60.43176
20.77265	60.94949
20.7772	61.30158
20.78175	61.75516
20.7863	62.27081
20.79085	63.36366
20.7954	64.73334
20.79994	66.39735
20.80449	68.47842
20.80904	70.48705
20.81359	71.68822
20.81814	72.51125
20.82269	73.22318
20.82724	73.67916
20.83178	73.4798
20.83633	72.92389
20.84088	72.41795
20.84543	71.40908
20.84998	70.1212
20.85453	68.54025
20.85907	67.06121
20.86362	65.82647
20.86817	64.42533
20.87272	62.93564
20.87727	62.20332
20.88182	61.29335
20.88636	60.70831
20.89091	60.37796
20.89546	60.208
20.90001	60.14638
20.90456	60.25977
20.90911	60.65199
20.91366	61.18135
20.9182	61.58002
20.92275	62.13601
20.9273	63.19332
20.93185	63.99156
20.9364	65.34921
20.94095	67.44772
20.94549	70.1383
20.95004	72.31107
20.95459	74.68929
20.95914	76.93323
20.96369	77.75435
20.96824	78.30475
20.97279	79.43581
20.97733	78.67723
20.98188	78.32345
20.98643	77.35586
20.99098	76.32101
20.99553	74.20731
21.00008	72.35288
21.00462	70.3333
21.00917	67.9275
21.01372	66.39201
21.01827	64.88781
21.02282	63.40008
21.02737	62.6394
21.03192	62.10766
21.03646	61.68316
21.04101	61.40207
21.04556	61.28911
21.05011	61.41248
21.05466	61.6895
21.05921	62.69513
21.06375	63.94033
21.0683	66.06364
21.07285	69.48709
21.0774	73.33451
21.08195	78.59875
21.0865	84.9101
21.09105	91.15187
21.09559	99.67734
21.10014	106.4889
21.10469	111.9648
21.10924	118.2781
21.11379	121.7607
21.11834	123.501
21.12288	125.8275
21.12743	124.9956
21.13198	121.1829
21.13653	116.7243
21.14108	112.39
21.14563	103.3211
21.15018	95.80407
21.15472	89.85759
21.15927	83.11771
21.16382	77.45751
21.16837	73.5146
21.17292	69.03047
21.17747	66.214
21.18201	64.47325
21.18656	63.12175
21.19111	62.32171
21.19566	61.87058
21.20021	61.99158
21.20476	62.32602
21.20931	62.66239
21.21385	63.50236
21.2184	65.14816
21.22295	67.06622
21.2275	69.46033
21.23205	71.93411
21.2366	75.27175
21.24114	78.3987
21.24569	81.44145
21.25024	83.78436
21.25479	86.18071
21.25934	87.82826
21.26389	89.09147
21.26843	88.89089
21.27298	88.08638
21.27753	86.45496
21.28208	84.11543
21.28663	81.07126
21.29118	77.50161
21.29573	74.53732
21.30027	71.00665
21.30482	68.3361
21.30937	65.91482
21.31392	63.65087
21.31847	62.49862
21.32302	61.48999
21.32756	60.82138
21.33211	60.52318
21.33666	60.63401
21.34121	60.71398
21.34576	60.48374
21.35031	60.96981
21.35486	61.43249
21.3594	61.82871
21.36395	62.22076
21.3685	62.74478
21.37305	63.39423
21.3776	64.12495
21.38215	64.85254
21.38669	65.70573
21.39124	66.56065
21.39579	67.41662
21.40034	67.94315
21.40489	68.10844
21.40944	67.60029
21.41399	67.20306
21.41853	66.80317
21.42308	66.12757
21.42763	65.3868
21.43218	64.69666
21.43673	64.15121
21.44128	63.59527
21.44582	62.71842
21.45037	61.88182
21.45492	61.36844
21.45947	61.08991
21.46402	60.84333
21.46857	60.50922
21.47312	60.73348
21.47766	60.91903
21.48221	61.076
21.48676	61.72825
21.49131	62.474
21.49586	63.76413
21.50041	65.80445
21.50495	68.68342
21.5095	72.35355
21.51405	76.63417
21.5186	81.30656
21.52315	85.24023
21.5277	89.54918
21.53225	92.88861
21.53679	94.78583
21.54134	97.06768
21.54589	98.52773
21.55044	99.08164
21.55499	98.93449
21.55954	98.32429
21.56408	95.73506
21.56863	91.93369
21.57318	88.68393
21.57773	84.08228
21.58228	78.94396
21.58683	74.95796
21.59138	70.81858
21.59592	67.77836
21.60047	65.04604
21.60502	63.43686
21.60957	62.3337
21.61412	61.89349
21.61867	61.53411
21.62321	60.748
21.62776	60.98765
21.63231	61.23159
21.63686	61.25423
21.64141	61.92408
21.64596	63.38551
21.6505	64.55804
21.65505	66.01472
21.6596	67.54124
21.66415	69.08591
21.6687	70.98702
21.67325	72.33698
21.6778	73.13134
21.68234	73.81443
21.68689	74.36415
21.69144	74.03403
21.69599	73.51233
21.70054	73.64393
21.70509	72.50436
21.70963	71.04998
21.71418	69.48805
21.71873	67.69305
21.72328	65.56821
21.72783	63.81145
21.73238	62.64
21.73693	62.10128
21.74147	61.34373
21.74602	60.81854
21.75057	60.22297
21.75512	60.05944
21.75967	59.42391
21.76422	58.86682
21.76876	58.84133
21.77331	58.86298
21.77786	58.90142
21.78241	58.84286
21.78696	58.75504
21.79151	58.80996
21.79606	58.94274
21.8006	58.98382
21.80515	58.84866
21.8097	59.15099
21.81425	59.52602
21.8188	59.43953
21.82335	59.68229
21.82789	59.55421
21.83244	59.6908
21.83699	59.94835
21.84154	59.54788
21.84609	59.80728
21.85064	59.56221
21.85519	59.74584
21.85973	59.22858
21.86428	59.47969
21.86883	59.62598
21.87338	58.94564
21.87793	59.15597
21.88248	59.40422
21.88702	59.712
21.89157	59.73532
21.89612	59.87459
21.90067	60.29702
21.90522	60.1073
21.90977	59.95372
21.91432	60.20129
21.91886	60.46618
21.92341	60.69543
21.92796	61.03721
21.93251	61.83976
21.93706	62.60676
21.94161	63.51503
21.94615	64.88316
21.9507	65.86763
21.95525	66.75063
21.9598	67.59048
21.96435	68.22176
21.9689	68.08886
21.97345	68.15047
21.97799	67.73284
21.98254	67.16593
21.98709	66.32054
21.99164	65.62932
21.99619	64.72122
22.00074	64.55892
22.00528	63.94466
22.00983	63.00426
22.01438	62.19888
22.01893	61.47488
22.02348	60.4627
22.02803	60.03506
22.03257	59.69539
22.03712	59.85041
22.04167	60.2885
22.04622	60.91887
22.05077	61.68279
22.05532	62.83215
22.05987	64.43817
22.06441	66.76012
22.06896	69.54924
22.07351	73.34613
22.07806	76.51229
22.08261	79.58949
22.08716	83.55378
22.0917	85.79957
22.09625	88.25043
22.1008	91.20444
22.10535	92.93858
22.1099	93.838
22.11445	93.78358
22.119	93.86868
22.12354	91.02234
22.12809	88.37627
22.13264	85.5028
22.13719	81.5099
22.14174	78.00582
22.14629	74.55589
22.15083	71.07309
22.15538	68.80528
22.15993	66.37048
22.16448	64.81884
22.16903	63.23722
22.17358	62.30515
22.17813	61.95044
22.18267	61.88783
22.18722	62.12845
22.19177	63.01369
22.19632	63.44562
22.20087	64.76772
22.20542	66.11133
22.20996	67.80915
22.21451	69.33757
22.21906	71.90199
22.22361	74.29607
22.22816	75.80133
22.23271	76.93079
22.23726	77.65757
22.2418	78.14521
22.24635	77.35416
22.2509	76.95734
22.25545	76.796
22.26	76.05624
22.26455	74.98071
22.26909	73.85891
22.27364	72.32091
22.27819	70.16319
22.28274	68.5574
22.28729	67.13607
22.29184	65.27498
22.29639	64.52092
22.30093	63.18871
22.30548	62.4348
22.31003	61.41693
22.31458	60.9805
22.31913	60.53231
22.32368	60.97467
22.32822	62.01759
22.33277	63.40866
22.33732	65.54015
22.34187	67.76992
22.34642	70.42699
22.35097	72.82204
22.35552	74.84448
22.36006	77.11744
22.36461	79.42429
22.36916	80.87554
22.37371	81.66671
22.37826	82.67409
22.38281	82.6991
22.38735	82.31031
22.3919	80.9816
22.39645	79.20484
22.401	77.54216
22.40555	75.49344
22.4101	73.13148
22.41464	70.3424
22.41919	69.04007
22.42374	67.07636
22.42829	65.60973
22.43284	64.64362
22.43739	63.56074
22.44194	62.81445
22.44648	62.33194
22.45103	61.83118
22.45558	61.83913
22.46013	62.26402
22.46468	62.61674
22.46923	63.34544
22.47377	64.15664
22.47832	64.88868
22.48287	65.66574
22.48742	66.02357
22.49197	66.88873
22.49652	67.54508
22.50107	68.17476
22.50561	68.9194
22.51016	69.11832
22.51471	69.24801
22.51926	68.69927
22.52381	68.9651
22.52836	68.09692
22.5329	67.72693
22.53745	67.97418
22.542	67.35257
22.54655	66.71421
22.5511	65.8962
22.55565	65.56038
22.5602	64.56643
22.56474	63.91518
22.56929	63.65532
22.57384	63.05673
22.57839	62.22579
22.58294	61.86271
22.58749	62.06575
22.59203	62.35867
22.59658	62.44199
22.60113	62.78751
22.60568	63.14293
22.61023	63.84679
22.61478	64.71149
22.61933	65.34856
22.62387	67.62743
22.62842	68.77384
22.63297	69.89637
22.63752	70.76321
22.64207	71.45736
22.64662	72.23113
22.65116	72.3649
22.65571	73.07675
22.66026	73.09687
22.66481	72.60005
22.66936	71.83803
22.67391	71.39171
22.67846	70.68123
22.683	69.16086
22.68755	68.08479
22.6921	67.73371
22.69665	66.66135
22.7012	65.33397
22.70575	64.9261
22.71029	65.33736
22.71484	65.60063
22.71939	65.15445
22.72394	65.29398
22.72849	65.88031
22.73304	65.92097
22.73759	67.04935
22.74213	68.74644
22.74668	73.44807
22.75123	78.05204
22.75578	82.66467
22.76033	89.15331
22.76488	92.49719
22.76942	97.52481
22.77397	99.88706
22.77852	102.2253
22.78307	104.5582
22.78762	102.3262
22.79217	102.4158
22.79671	99.48595
22.80126	95.86522
22.80581	92.65472
22.81036	89.69047
22.81491	87.51713
22.81946	83.00641
22.82401	80.67033
22.82855	78.20441
22.8331	73.26891
22.83765	71.82191
22.8422	69.66405
22.84675	67.78733
22.8513	67.12219
22.85584	65.56046
22.86039	65.22943
22.86494	64.11888
22.86949	64.19778
22.87404	63.93662
22.87859	64.00015
22.88314	64.0667
22.88768	64.29899
22.89223	64.50309
22.89678	64.42065
22.90133	64.47603
22.90588	64.63625
22.91043	64.54001
22.91497	64.28206
22.91952	64.3417
22.92407	64.00318
22.92862	63.71456
22.93317	63.64774
22.93772	63.90673
22.94227	62.94024
22.94681	62.71531
22.95136	62.94434
22.95591	63.25911
22.96046	63.53665
22.96501	63.20159
22.96956	63.9465
22.9741	63.92895
22.97865	64.01579
22.9832	63.4082
22.98775	63.84672
22.9923	64.67711
22.99685	64.36691
23.0014	64.34431
23.00594	65.16144
23.01049	65.69497
23.01504	66.68926
23.01959	68.29003
23.02414	68.96574
23.02869	72.20081
23.03323	74.21819
23.03778	74.42452
23.04233	76.58828
23.04688	78.0926
23.05143	79.08416
23.05598	78.50326
23.06053	78.65402
23.06507	78.14852
23.06962	75.94463
23.07417	75.6367
23.07872	72.74748
23.08327	72.01432
23.08782	70.9688
23.09236	69.63203
23.09691	68.24966
23.10146	66.91449
23.10601	65.64736
23.11056	65.08951
23.11511	64.561
23.11966	64.13907
23.1242	64.36607
23.12875	65.16087
23.1333	66.40639
23.13785	68.56488
23.1424	71.61862
23.14695	73.0768
23.15149	79.01199
23.15604	81.80767
23.16059	84.52242
23.16514	91.70433
23.16969	93.71135
23.17424	96.99715
23.17878	101.5986
23.18333	102.308
23.18788	105.9321
23.19243	107.3198
23.19698	106.2908
23.20153	104.2257
23.20608	102.8686
23.21062	98.70993
23.21517	91.54906
23.21972	89.62356
23.22427	83.97523
23.22882	80.3556
23.23337	77.97424
23.23791	72.09792
23.24246	70.71313
23.24701	69.24216
23.25156	66.19236
23.25611	66.24356
23.26066	67.21955
23.26521	68.18355
23.26975	68.78561
23.2743	70.12685
23.27885	70.59846
23.2834	72.20859
23.28795	75.20009
23.2925	76.56425
23.29704	81.00863
23.30159	86.0857
23.30614	87.21144
23.31069	90.70259
23.31524	92.33896
23.31979	92.85112
23.32434	93.79748
23.32888	93.69922
23.33343	92.00577
23.33798	89.04813
23.34253	88.09124
23.34708	81.98186
23.35163	79.26558
23.35617	77.78725
23.36072	75.15182
23.36527	73.04131
23.36982	71.8752
23.37437	68.47082
23.37892	66.83907
23.38347	65.45536
23.38801	64.66232
23.39256	63.74609
23.39711	63.66733
23.40166	64.43043
23.40621	64.61556
23.41076	65.31972
23.4153	66.23913
23.41985	68.26266
23.4244	70.15015
23.42895	70.71748
23.4335	72.842
23.43805	73.42715
23.4426	74.14864
23.44714	75.62829
23.45169	75.8077
23.45624	76.84081
23.46079	76.88478
23.46534	76.21462
23.46989	74.46102
23.47443	72.88947
23.47898	72.19958
23.48353	69.88204
23.48808	71.00121
23.49263	69.93729
23.49718	68.59168
23.50173	68.04823
23.50627	66.36114
23.51082	64.11941
23.51537	63.77134
23.51992	63.5466
23.52447	64.34843
23.52902	64.22398
23.53356	64.68322
23.53811	64.74949
23.54266	64.45352
23.54721	64.15795
23.55176	64.13604
23.55631	65.3911
23.56085	65.70087
23.5654	65.80155
23.56995	65.42751
23.5745	65.4662
23.57905	63.88036
23.5836	61.9701
23.58815	61.95723
23.59269	62.20223
23.59724	62.22949
23.60179	62.67361
23.60634	63.68644
23.61089	63.70911
23.61544	64.72466
23.61998	64.91222
23.62453	64.89494
23.62908	64.74512
23.63363	64.79324
23.63818	64.31682
23.64273	63.14175
23.64728	62.96141
23.65182	64.5305
23.65637	67.73849
23.66092	67.73849
23.66547	70.56077
23.67002	71.98243
23.67457	71.71878
23.67911	72.70231
23.68366	72.80297
23.68821	77.13416
23.69276	87.12864
23.69731	87.12864
23.70186	109.3919
23.70641	123.3869
23.71095	124.3679
23.7155	152.1347
23.72005	153.0111
23.7246	152.4706
23.72915	137.5191
23.7337	137.5191
23.73824	126.6296
23.74279	102.8336
23.74734	102.8336
